# OpenSignals Text File Format. Version 1
# {"98:D3:51:FD:71:01": {"position": 0, "device": "bitalino_rev", "device name": "98:D3:51:FD:71:01", "device connection": "BTH98:D3:51:FD:71:01", "sampling rate": 1000, "resolution": [4, 1, 1, 1, 1, 10, 10, 10, 10, 6, 6], "firmware version": 1282, "comments": "", "keywords": "", "mode": 0, "sync interval": 2, "date": "2024-4-12", "time": "10:15:47.763", "channels": [1, 2, 3, 4, 5, 6], "sensor": ["EMGBITREV", "RAW", "RAW", "RAW", "RAW", "RAW"], "label": ["A1", "A2", "A3", "A4", "A5", "A6"], "column": ["nSeq", "I1", "I2", "O1", "O2", "A1", "A2", "A3", "A4", "A5", "A6"], "special": [{}, {}, {}, {}, {}, {}], "digital IO": [0, 0, 1, 1], "convertedValues": 0}}
# EndOfHeader
0	0	0	0	0	501	498	0	554	39	9	
1	0	0	0	0	497	508	0	551	39	9	
2	0	0	0	0	498	515	0	548	39	10	
3	0	0	0	0	503	518	0	543	39	11	
4	0	0	0	0	507	516	0	537	38	12	
5	0	0	0	0	508	515	0	538	39	12	
6	0	0	0	0	505	518	0	535	39	11	
7	0	0	0	0	503	519	0	532	39	10	
8	0	0	0	0	507	521	0	524	39	9	
9	0	0	0	0	509	516	0	519	39	9	
10	0	0	0	0	512	510	0	519	39	10	
11	0	0	0	0	518	501	0	521	39	11	
12	0	0	0	0	519	489	0	527	39	12	
13	0	0	0	0	518	478	0	532	39	12	
14	0	0	0	0	513	476	0	538	39	11	
15	0	0	0	0	508	483	0	538	39	10	
0	0	0	0	0	504	492	0	536	39	9	
1	0	0	0	0	501	501	0	532	39	9	
2	0	0	0	0	501	509	0	528	39	9	
3	0	0	0	0	502	515	0	531	39	10	
4	0	0	0	0	506	515	0	524	39	11	
5	0	0	0	0	508	515	0	524	38	12	
6	0	0	0	0	505	512	0	525	38	12	
7	0	0	0	0	505	515	0	541	38	11	
8	0	0	0	0	505	518	0	561	38	9	
9	0	0	0	0	506	518	0	577	38	9	
10	0	0	0	0	510	512	0	582	39	9	
11	0	0	0	0	512	504	0	598	39	10	
12	0	0	0	0	515	496	0	615	39	11	
13	0	0	0	0	518	482	0	608	39	12	
14	0	0	0	0	514	473	0	617	39	12	
15	0	0	0	0	511	474	0	612	39	11	
0	0	0	0	0	507	483	0	621	39	10	
1	0	0	0	0	502	494	0	609	38	9	
2	0	0	0	0	499	504	0	600	39	9	
3	0	0	0	0	499	515	0	592	39	10	
4	0	0	0	0	501	518	0	583	39	11	
5	0	0	0	0	505	517	0	579	39	12	
6	0	0	0	0	507	515	0	572	39	12	
7	0	0	0	0	504	516	0	558	39	11	
8	0	0	0	0	505	519	0	544	39	10	
9	0	0	0	0	505	521	0	530	38	9	
10	0	0	0	0	509	520	0	522	39	9	
11	0	0	0	0	512	514	0	516	38	9	
12	0	0	0	0	515	504	0	512	38	10	
13	0	0	0	0	520	492	0	524	39	11	
14	0	0	0	0	520	479	0	550	39	12	
15	0	0	0	0	512	474	0	557	38	12	
0	0	0	0	0	508	479	0	575	38	11	
1	0	0	0	0	505	488	0	583	38	9	
2	0	0	0	0	500	498	0	582	39	9	
3	0	0	0	0	500	506	0	579	38	9	
4	0	0	0	0	500	515	0	571	38	10	
5	0	0	0	0	505	519	0	565	38	11	
6	0	0	0	0	507	519	0	548	38	12	
7	0	0	0	0	509	518	0	532	39	12	
8	0	0	0	0	503	519	0	522	38	11	
9	0	0	0	0	504	521	0	508	39	10	
10	0	0	0	0	506	519	0	500	39	9	
11	0	0	0	0	510	514	0	495	39	9	
12	0	0	0	0	514	508	0	496	39	10	
13	0	0	0	0	514	498	0	496	39	11	
14	0	0	0	0	518	487	0	499	39	11	
15	0	0	0	0	516	476	0	502	39	12	
0	0	0	0	0	508	475	0	501	39	11	
1	0	0	0	0	505	481	0	508	39	10	
2	0	0	0	0	503	491	0	500	39	9	
3	0	0	0	0	502	502	0	502	39	9	
4	0	0	0	0	498	512	0	501	39	9	
5	0	0	0	0	502	518	0	501	39	10	
6	0	0	0	0	505	519	0	509	38	11	
7	0	0	0	0	507	516	0	528	39	12	
8	0	0	0	0	506	516	0	531	39	12	
9	0	0	0	0	505	516	0	545	38	11	
10	0	0	0	0	504	520	0	553	39	9	
11	0	0	0	0	509	519	0	555	39	9	
12	0	0	0	0	506	515	0	568	39	9	
13	0	0	0	0	512	507	0	567	39	10	
14	0	0	0	0	517	496	0	573	39	11	
15	0	0	0	0	520	483	0	572	39	12	
0	0	0	0	0	519	475	0	571	39	12	
1	0	0	0	0	510	477	0	580	39	11	
2	0	0	0	0	505	487	0	574	39	10	
3	0	0	0	0	502	495	0	588	38	9	
4	0	0	0	0	502	504	0	583	39	9	
5	0	0	0	0	502	513	0	578	39	10	
6	0	0	0	0	501	517	0	582	39	11	
7	0	0	0	0	504	518	0	575	39	11	
8	0	0	0	0	507	515	0	576	39	12	
9	0	0	0	0	505	515	0	571	39	11	
10	0	0	0	0	506	519	0	561	39	10	
11	0	0	0	0	505	518	0	554	38	9	
12	0	0	0	0	509	516	0	546	38	9	
13	0	0	0	0	512	511	0	540	38	9	
14	0	0	0	0	515	503	0	526	39	10	
15	0	0	0	0	520	492	0	526	39	11	
0	0	0	0	0	519	480	0	522	39	12	
1	0	0	0	0	512	475	0	515	39	12	
2	0	0	0	0	510	480	0	508	39	11	
3	0	0	0	0	502	489	0	503	39	9	
4	0	0	0	0	502	498	0	498	39	9	
5	0	0	0	0	501	506	0	495	39	9	
6	0	0	0	0	500	513	0	491	39	10	
7	0	0	0	0	502	518	0	486	38	11	
8	0	0	0	0	505	517	0	496	39	12	
9	0	0	0	0	505	515	0	478	39	12	
10	0	0	0	0	504	516	0	477	39	11	
11	0	0	0	0	505	518	0	479	39	10	
12	0	0	0	0	505	518	0	481	38	9	
13	0	0	0	0	507	514	0	479	39	9	
14	0	0	0	0	511	509	0	480	39	10	
15	0	0	0	0	514	502	0	482	39	11	
0	0	0	0	0	517	491	0	482	39	11	
1	0	0	0	0	518	479	0	482	39	12	
2	0	0	0	0	509	477	0	485	39	11	
3	0	0	0	0	507	483	0	490	39	10	
4	0	0	0	0	504	492	0	494	39	9	
5	0	0	0	0	503	502	0	497	39	9	
6	0	0	0	0	499	511	0	495	38	9	
7	0	0	0	0	500	517	0	489	39	10	
8	0	0	0	0	503	517	0	496	39	11	
9	0	0	0	0	506	516	0	515	39	12	
10	0	0	0	0	507	516	0	524	39	11	
11	0	0	0	0	506	519	0	543	39	11	
12	0	0	0	0	504	521	0	552	39	9	
13	0	0	0	0	508	520	0	556	39	9	
14	0	0	0	0	508	516	0	569	39	9	
15	0	0	0	0	510	511	0	565	39	10	
0	0	0	0	0	514	499	0	574	39	11	
1	0	0	0	0	517	485	0	574	38	12	
2	0	0	0	0	516	476	0	563	39	12	
3	0	0	0	0	511	477	0	547	38	11	
4	0	0	0	0	505	484	0	531	38	10	
5	0	0	0	0	504	496	0	520	39	9	
6	0	0	0	0	503	504	0	530	38	9	
7	0	0	0	0	502	513	0	538	39	10	
8	0	0	0	0	504	518	0	537	39	11	
9	0	0	0	0	507	519	0	549	39	11	
10	0	0	0	0	508	518	0	551	39	12	
11	0	0	0	0	505	516	0	557	39	11	
12	0	0	0	0	507	519	0	565	39	10	
13	0	0	0	0	505	523	0	559	39	9	
14	0	0	0	0	508	521	0	564	38	9	
15	0	0	0	0	511	516	0	563	39	9	
0	0	0	0	0	515	508	0	549	39	10	
1	0	0	0	0	516	495	0	549	39	11	
2	0	0	0	0	519	482	0	546	39	12	
3	0	0	0	0	514	476	0	561	39	11	
4	0	0	0	0	508	481	0	559	39	10	
5	0	0	0	0	505	490	0	566	39	9	
6	0	0	0	0	501	500	0	568	39	9	
7	0	0	0	0	501	508	0	557	38	9	
8	0	0	0	0	500	514	0	559	39	10	
9	0	0	0	0	504	516	0	547	39	11	
10	0	0	0	0	506	515	0	545	39	11	
11	0	0	0	0	505	514	0	549	39	12	
12	0	0	0	0	505	517	0	544	39	11	
13	0	0	0	0	505	520	0	554	39	10	
14	0	0	0	0	507	521	0	545	39	9	
15	0	0	0	0	509	517	0	544	39	9	
0	0	0	0	0	512	511	0	546	39	10	
1	0	0	0	0	515	502	0	537	39	11	
2	0	0	0	0	518	489	0	550	39	11	
3	0	0	0	0	516	477	0	550	39	12	
4	0	0	0	0	509	476	0	556	39	11	
5	0	0	0	0	506	484	0	566	39	10	
6	0	0	0	0	504	494	0	560	39	9	
7	0	0	0	0	503	503	0	568	39	8	
8	0	0	0	0	501	512	0	560	39	9	
9	0	0	0	0	502	519	0	557	38	10	
10	0	0	0	0	503	519	0	563	39	11	
11	0	0	0	0	506	518	0	554	39	12	
12	0	0	0	0	506	515	0	562	38	11	
13	0	0	0	0	504	517	0	556	38	10	
14	0	0	0	0	505	519	0	556	38	9	
15	0	0	0	0	508	517	0	559	39	8	
0	0	0	0	0	512	512	0	548	39	9	
1	0	0	0	0	513	505	0	551	38	10	
2	0	0	0	0	515	496	0	545	39	11	
3	0	0	0	0	519	485	0	550	39	11	
4	0	0	0	0	515	476	0	576	39	12	
5	0	0	0	0	509	480	0	558	39	11	
6	0	0	0	0	504	488	0	568	39	10	
7	0	0	0	0	501	498	0	558	39	9	
8	0	0	0	0	502	506	0	560	38	9	
9	0	0	0	0	502	515	0	558	39	10	
10	0	0	0	0	504	519	0	549	39	11	
11	0	0	0	0	505	519	0	556	38	11	
12	0	0	0	0	506	519	0	553	39	12	
13	0	0	0	0	505	519	0	558	39	11	
14	0	0	0	0	503	521	0	557	39	10	
15	0	0	0	0	508	523	0	547	39	9	
0	0	0	0	0	509	520	0	553	39	8	
1	0	0	0	0	514	514	0	546	39	9	
2	0	0	0	0	513	507	0	545	39	10	
3	0	0	0	0	518	496	0	551	39	11	
4	0	0	0	0	519	481	0	548	39	12	
5	0	0	0	0	511	476	0	561	39	11	
6	0	0	0	0	507	481	0	560	39	10	
7	0	0	0	0	503	491	0	563	39	9	
8	0	0	0	0	500	500	0	566	39	8	
9	0	0	0	0	501	510	0	556	39	9	
10	0	0	0	0	502	517	0	560	39	10	
11	0	0	0	0	504	519	0	553	39	11	
12	0	0	0	0	507	518	0	545	39	11	
13	0	0	0	0	506	514	0	540	39	12	
14	0	0	0	0	505	515	0	535	39	11	
15	0	0	0	0	504	518	0	531	38	10	
0	0	0	0	0	508	519	0	542	38	9	
1	0	0	0	0	509	515	0	545	38	9	
2	0	0	0	0	510	509	0	542	39	10	
3	0	0	0	0	517	498	0	538	39	11	
4	0	0	0	0	519	487	0	536	39	11	
5	0	0	0	0	520	475	0	539	39	12	
6	0	0	0	0	510	475	0	528	39	11	
7	0	0	0	0	505	483	0	518	39	10	
8	0	0	0	0	503	493	0	507	39	9	
9	0	0	0	0	502	503	0	497	39	8	
10	0	0	0	0	502	512	0	492	39	9	
11	0	0	0	0	504	517	0	481	39	10	
12	0	0	0	0	504	519	0	476	39	11	
13	0	0	0	0	505	518	0	478	39	12	
14	0	0	0	0	504	516	0	503	39	11	
15	0	0	0	0	504	518	0	522	39	10	
0	0	0	0	0	502	520	0	505	39	9	
1	0	0	0	0	510	519	0	496	39	8	
2	0	0	0	0	511	516	0	488	39	9	
3	0	0	0	0	512	509	0	487	39	10	
4	0	0	0	0	518	499	0	483	39	11	
5	0	0	0	0	519	486	0	483	39	11	
6	0	0	0	0	514	477	0	497	39	12	
7	0	0	0	0	508	476	0	523	39	11	
8	0	0	0	0	505	483	0	543	38	10	
9	0	0	0	0	504	493	0	520	38	9	
10	0	0	0	0	502	503	0	508	39	9	
11	0	0	0	0	502	511	0	498	38	10	
12	0	0	0	0	505	515	0	493	38	10	
13	0	0	0	0	507	515	0	486	39	11	
14	0	0	0	0	509	513	0	481	39	12	
15	0	0	0	0	504	513	0	476	39	11	
0	0	0	0	0	502	517	0	469	39	10	
1	0	0	0	0	504	518	0	463	39	9	
2	0	0	0	0	508	516	0	463	39	8	
3	0	0	0	0	511	511	0	464	39	9	
4	0	0	0	0	515	504	0	466	38	10	
5	0	0	0	0	517	494	0	474	39	11	
6	0	0	0	0	516	481	0	479	39	12	
7	0	0	0	0	511	476	0	483	39	11	
8	0	0	0	0	508	479	0	484	39	10	
9	0	0	0	0	503	487	0	484	39	9	
10	0	0	0	0	501	496	0	500	39	8	
11	0	0	0	0	500	506	0	488	39	9	
12	0	0	0	0	499	515	0	488	39	10	
13	0	0	0	0	504	515	0	487	39	11	
14	0	0	0	0	506	515	0	483	39	11	
15	0	0	0	0	507	513	0	496	39	12	
0	0	0	0	0	505	516	0	477	39	11	
1	0	0	0	0	506	519	0	472	39	10	
2	0	0	0	0	507	519	0	468	39	9	
3	0	0	0	0	510	513	0	471	39	9	
4	0	0	0	0	513	508	0	472	39	10	
5	0	0	0	0	516	498	0	476	39	10	
6	0	0	0	0	519	488	0	483	39	11	
7	0	0	0	0	518	476	0	508	39	12	
8	0	0	0	0	511	476	0	527	39	11	
9	0	0	0	0	507	482	0	526	38	10	
10	0	0	0	0	504	492	0	520	39	9	
11	0	0	0	0	502	501	0	512	39	8	
12	0	0	0	0	503	511	0	504	39	9	
13	0	0	0	0	505	516	0	519	38	10	
14	0	0	0	0	505	518	0	529	39	11	
15	0	0	0	0	505	517	0	533	39	12	
0	0	0	0	0	505	514	0	551	39	11	
1	0	0	0	0	503	515	0	549	38	10	
2	0	0	0	0	504	519	0	556	39	9	
3	0	0	0	0	507	518	0	557	39	8	
4	0	0	0	0	511	515	0	550	39	9	
5	0	0	0	0	514	509	0	558	39	10	
6	0	0	0	0	516	498	0	553	39	11	
7	0	0	0	0	516	486	0	553	39	11	
8	0	0	0	0	514	477	0	553	39	12	
9	0	0	0	0	508	481	0	543	39	11	
10	0	0	0	0	505	490	0	552	39	10	
11	0	0	0	0	502	498	0	551	39	9	
12	0	0	0	0	502	506	0	553	39	9	
13	0	0	0	0	500	517	0	552	39	10	
14	0	0	0	0	504	520	0	541	39	11	
15	0	0	0	0	504	519	0	545	39	11	
0	0	0	0	0	504	515	0	539	39	12	
1	0	0	0	0	505	517	0	537	39	11	
2	0	0	0	0	504	520	0	540	39	10	
3	0	0	0	0	506	523	0	531	39	9	
4	0	0	0	0	508	520	0	525	39	9	
5	0	0	0	0	510	515	0	520	39	9	
6	0	0	0	0	513	505	0	516	39	10	
7	0	0	0	0	517	494	0	521	39	11	
8	0	0	0	0	518	481	0	535	39	12	
9	0	0	0	0	511	477	0	536	39	11	
10	0	0	0	0	508	481	0	532	39	10	
11	0	0	0	0	504	491	0	529	39	9	
12	0	0	0	0	502	499	0	526	39	8	
13	0	0	0	0	500	505	0	516	39	9	
14	0	0	0	0	503	513	0	500	39	10	
15	0	0	0	0	504	517	0	485	38	11	
0	0	0	0	0	508	518	0	472	39	11	
1	0	0	0	0	508	517	0	462	39	12	
2	0	0	0	0	506	518	0	461	39	11	
3	0	0	0	0	505	521	0	455	39	10	
4	0	0	0	0	506	519	0	450	39	9	
5	0	0	0	0	507	517	0	449	39	9	
6	0	0	0	0	510	510	0	450	39	10	
7	0	0	0	0	513	501	0	448	39	11	
8	0	0	0	0	517	489	0	449	39	11	
9	0	0	0	0	517	477	0	449	39	12	
10	0	0	0	0	509	476	0	451	39	11	
11	0	0	0	0	509	483	0	456	39	10	
12	0	0	0	0	502	493	0	459	39	9	
13	0	0	0	0	503	503	0	463	39	8	
14	0	0	0	0	502	510	0	461	39	9	
15	0	0	0	0	504	515	0	465	39	10	
0	0	0	0	0	504	516	0	464	39	11	
1	0	0	0	0	506	513	0	483	39	12	
2	0	0	0	0	507	514	0	491	39	11	
3	0	0	0	0	507	518	0	511	39	11	
4	0	0	0	0	504	520	0	518	39	9	
5	0	0	0	0	508	519	0	521	39	8	
6	0	0	0	0	513	517	0	533	39	9	
7	0	0	0	0	513	510	0	528	39	10	
8	0	0	0	0	515	497	0	537	39	11	
9	0	0	0	0	518	486	0	536	39	11	
10	0	0	0	0	513	477	0	539	39	12	
11	0	0	0	0	509	478	0	550	39	11	
12	0	0	0	0	505	486	0	547	39	10	
13	0	0	0	0	501	497	0	559	39	9	
14	0	0	0	0	499	506	0	547	39	9	
15	0	0	0	0	499	512	0	553	39	10	
0	0	0	0	0	503	516	0	547	38	11	
1	0	0	0	0	506	516	0	558	39	11	
2	0	0	0	0	508	515	0	553	39	12	
3	0	0	0	0	505	515	0	547	39	11	
4	0	0	0	0	504	519	0	540	39	10	
5	0	0	0	0	506	521	0	527	39	9	
6	0	0	0	0	510	519	0	512	39	8	
7	0	0	0	0	512	513	0	495	39	9	
8	0	0	0	0	513	505	0	483	39	10	
9	0	0	0	0	515	492	0	485	39	11	
10	0	0	0	0	519	481	0	509	39	12	
11	0	0	0	0	512	475	0	517	39	11	
12	0	0	0	0	509	479	0	537	39	11	
13	0	0	0	0	507	488	0	545	39	9	
14	0	0	0	0	503	497	0	548	39	9	
15	0	0	0	0	502	508	0	555	39	9	
0	0	0	0	0	502	516	0	544	39	10	
1	0	0	0	0	504	519	0	536	39	11	
2	0	0	0	0	505	518	0	531	39	12	
3	0	0	0	0	507	516	0	528	39	12	
4	0	0	0	0	501	518	0	525	39	11	
5	0	0	0	0	502	521	0	521	39	10	
6	0	0	0	0	508	521	0	507	38	9	
7	0	0	0	0	507	516	0	493	38	9	
8	0	0	0	0	512	510	0	482	38	10	
9	0	0	0	0	514	500	0	474	39	11	
10	0	0	0	0	519	489	0	472	39	11	
11	0	0	0	0	519	477	0	473	38	12	
12	0	0	0	0	512	475	0	475	39	11	
13	0	0	0	0	506	481	0	479	39	10	
14	0	0	0	0	501	491	0	481	39	9	
15	0	0	0	0	500	501	0	483	39	9	
0	0	0	0	0	499	510	0	480	38	9	
1	0	0	0	0	499	517	0	473	38	10	
2	0	0	0	0	502	519	0	483	39	11	
3	0	0	0	0	507	516	0	507	38	12	
4	0	0	0	0	507	515	0	519	39	12	
5	0	0	0	0	505	519	0	537	39	11	
6	0	0	0	0	504	520	0	540	39	9	
7	0	0	0	0	509	519	0	541	39	9	
8	0	0	0	0	510	514	0	549	39	9	
9	0	0	0	0	512	508	0	548	39	10	
10	0	0	0	0	517	495	0	552	39	11	
11	0	0	0	0	517	483	0	556	39	12	
12	0	0	0	0	519	476	0	559	39	12	
13	0	0	0	0	512	476	0	570	39	11	
14	0	0	0	0	506	486	0	563	39	10	
15	0	0	0	0	504	496	0	563	39	9	
0	0	0	0	0	503	506	0	553	39	9	
1	0	0	0	0	504	514	0	545	39	10	
2	0	0	0	0	504	516	0	551	39	11	
3	0	0	0	0	505	517	0	544	39	11	
4	0	0	0	0	506	515	0	538	39	12	
5	0	0	0	0	505	515	0	534	39	11	
6	0	0	0	0	505	519	0	532	39	10	
7	0	0	0	0	506	521	0	529	39	9	
8	0	0	0	0	509	520	0	543	39	9	
9	0	0	0	0	512	516	0	542	39	9	
10	0	0	0	0	515	508	0	548	39	10	
11	0	0	0	0	515	496	0	537	39	11	
12	0	0	0	0	515	483	0	536	39	12	
13	0	0	0	0	509	476	0	534	39	12	
14	0	0	0	0	510	480	0	526	39	11	
15	0	0	0	0	505	489	0	513	39	9	
0	0	0	0	0	504	498	0	502	39	9	
1	0	0	0	0	502	507	0	493	39	9	
2	0	0	0	0	500	516	0	486	39	10	
3	0	0	0	0	504	520	0	482	38	11	
4	0	0	0	0	506	519	0	476	39	12	
5	0	0	0	0	505	517	0	474	39	12	
6	0	0	0	0	505	518	0	473	39	11	
7	0	0	0	0	504	521	0	472	39	10	
8	0	0	0	0	508	519	0	469	38	9	
9	0	0	0	0	508	516	0	465	39	9	
10	0	0	0	0	511	511	0	478	39	10	
11	0	0	0	0	516	502	0	506	39	11	
12	0	0	0	0	516	489	0	519	39	11	
13	0	0	0	0	518	479	0	545	39	12	
14	0	0	0	0	509	479	0	558	39	11	
15	0	0	0	0	507	484	0	564	39	10	
0	0	0	0	0	502	492	0	575	39	9	
1	0	0	0	0	501	502	0	569	39	9	
2	0	0	0	0	502	511	0	562	39	9	
3	0	0	0	0	502	516	0	556	39	10	
4	0	0	0	0	505	518	0	550	39	11	
5	0	0	0	0	509	514	0	538	39	12	
6	0	0	0	0	506	512	0	527	39	12	
7	0	0	0	0	508	515	0	514	39	11	
8	0	0	0	0	505	519	0	502	39	9	
9	0	0	0	0	509	518	0	495	39	9	
10	0	0	0	0	511	514	0	492	39	9	
11	0	0	0	0	512	510	0	490	39	10	
12	0	0	0	0	517	497	0	490	38	11	
13	0	0	0	0	519	485	0	492	38	12	
14	0	0	0	0	516	477	0	496	39	12	
15	0	0	0	0	508	478	0	497	38	11	
0	0	0	0	0	504	485	0	496	39	10	
1	0	0	0	0	503	494	0	492	38	9	
2	0	0	0	0	500	503	0	492	39	9	
3	0	0	0	0	499	511	0	495	39	10	
4	0	0	0	0	503	515	0	491	39	11	
5	0	0	0	0	505	514	0	490	38	12	
6	0	0	0	0	507	512	0	488	38	12	
7	0	0	0	0	503	513	0	486	38	11	
8	0	0	0	0	504	516	0	480	38	10	
9	0	0	0	0	506	517	0	474	38	9	
10	0	0	0	0	507	515	0	473	39	9	
11	0	0	0	0	511	510	0	475	39	9	
12	0	0	0	0	514	504	0	476	39	10	
13	0	0	0	0	517	493	0	480	39	11	
14	0	0	0	0	519	481	0	486	39	12	
15	0	0	0	0	515	476	0	493	39	12	
0	0	0	0	0	509	480	0	492	39	11	
1	0	0	0	0	504	488	0	492	39	9	
2	0	0	0	0	501	499	0	493	39	9	
3	0	0	0	0	499	511	0	494	39	9	
4	0	0	0	0	499	519	0	493	39	10	
5	0	0	0	0	503	522	0	491	39	11	
6	0	0	0	0	505	520	0	489	38	12	
7	0	0	0	0	507	518	0	487	39	12	
8	0	0	0	0	505	519	0	486	38	11	
9	0	0	0	0	507	521	0	480	39	10	
10	0	0	0	0	507	521	0	478	39	9	
11	0	0	0	0	505	518	0	478	39	9	
12	0	0	0	0	509	512	0	484	39	10	
13	0	0	0	0	513	503	0	485	39	11	
14	0	0	0	0	519	490	0	491	38	12	
15	0	0	0	0	518	480	0	493	38	12	
0	0	0	0	0	508	479	0	491	38	12	
1	0	0	0	0	505	486	0	500	38	10	
2	0	0	0	0	501	496	0	494	39	9	
3	0	0	0	0	500	503	0	495	39	9	
4	0	0	0	0	501	513	0	495	39	9	
5	0	0	0	0	502	519	0	495	38	10	
6	0	0	0	0	503	520	0	490	38	11	
7	0	0	0	0	507	517	0	485	39	12	
8	0	0	0	0	505	515	0	478	39	12	
9	0	0	0	0	504	517	0	472	38	11	
10	0	0	0	0	504	521	0	470	39	10	
11	0	0	0	0	508	520	0	470	39	9	
12	0	0	0	0	511	515	0	472	39	9	
13	0	0	0	0	513	510	0	474	39	10	
14	0	0	0	0	518	499	0	480	39	11	
15	0	0	0	0	517	485	0	480	39	12	
0	0	0	0	0	516	477	0	481	39	12	
1	0	0	0	0	508	479	0	480	39	11	
2	0	0	0	0	503	487	0	483	39	10	
3	0	0	0	0	501	496	0	484	39	9	
4	0	0	0	0	501	505	0	486	39	9	
5	0	0	0	0	499	514	0	485	39	10	
6	0	0	0	0	502	518	0	483	38	11	
7	0	0	0	0	505	519	0	480	39	12	
8	0	0	0	0	508	515	0	474	39	12	
9	0	0	0	0	507	513	0	470	39	12	
10	0	0	0	0	506	517	0	472	39	10	
11	0	0	0	0	505	519	0	478	39	9	
12	0	0	0	0	509	516	0	501	39	9	
13	0	0	0	0	512	512	0	514	39	9	
14	0	0	0	0	511	505	0	529	39	11	
15	0	0	0	0	517	495	0	546	39	11	
0	0	0	0	0	521	482	0	547	39	12	
1	0	0	0	0	515	476	0	564	39	12	
2	0	0	0	0	512	479	0	566	39	11	
3	0	0	0	0	504	487	0	572	39	10	
4	0	0	0	0	503	498	0	579	39	9	
5	0	0	0	0	501	508	0	572	39	9	
6	0	0	0	0	501	516	0	575	39	10	
7	0	0	0	0	500	517	0	564	39	11	
8	0	0	0	0	507	515	0	563	39	12	
9	0	0	0	0	508	512	0	562	39	12	
10	0	0	0	0	507	512	0	555	39	11	
11	0	0	0	0	506	516	0	561	39	10	
12	0	0	0	0	508	517	0	554	39	9	
13	0	0	0	0	510	514	0	555	39	9	
14	0	0	0	0	514	508	0	551	39	10	
15	0	0	0	0	515	500	0	541	39	11	
0	0	0	0	0	518	488	0	545	39	12	
1	0	0	0	0	517	478	0	538	39	12	
2	0	0	0	0	512	477	0	543	39	12	
3	0	0	0	0	505	482	0	554	39	11	
4	0	0	0	0	503	491	0	553	39	9	
5	0	0	0	0	502	500	0	564	39	9	
6	0	0	0	0	498	510	0	561	39	9	
7	0	0	0	0	500	516	0	559	39	11	
8	0	0	0	0	505	519	0	556	39	12	
9	0	0	0	0	505	515	0	544	39	12	
10	0	0	0	0	507	514	0	550	39	12	
11	0	0	0	0	506	517	0	557	39	11	
12	0	0	0	0	504	519	0	543	39	10	
13	0	0	0	0	507	520	0	546	39	9	
14	0	0	0	0	510	515	0	541	39	9	
15	0	0	0	0	511	507	0	548	39	10	
0	0	0	0	0	517	497	0	541	39	11	
1	0	0	0	0	519	485	0	544	39	12	
2	0	0	0	0	514	477	0	550	39	12	
3	0	0	0	0	508	479	0	549	39	11	
4	0	0	0	0	504	486	0	576	38	10	
5	0	0	0	0	504	497	0	559	39	9	
6	0	0	0	0	500	506	0	560	39	9	
7	0	0	0	0	500	512	0	563	39	10	
8	0	0	0	0	503	516	0	556	39	11	
9	0	0	0	0	504	516	0	558	39	12	
10	0	0	0	0	506	515	0	546	39	12	
11	0	0	0	0	505	516	0	544	39	12	
12	0	0	0	0	505	518	0	550	39	11	
13	0	0	0	0	503	520	0	543	39	9	
14	0	0	0	0	506	517	0	549	39	9	
15	0	0	0	0	511	512	0	538	39	10	
0	0	0	0	0	515	505	0	540	38	11	
1	0	0	0	0	517	494	0	543	39	12	
2	0	0	0	0	518	482	0	537	39	12	
3	0	0	0	0	515	474	0	534	39	12	
4	0	0	0	0	507	478	0	530	39	11	
5	0	0	0	0	502	487	0	518	39	10	
6	0	0	0	0	502	497	0	504	39	9	
7	0	0	0	0	500	505	0	491	39	9	
8	0	0	0	0	502	514	0	482	39	10	
9	0	0	0	0	503	519	0	510	39	11	
10	0	0	0	0	504	519	0	504	39	12	
11	0	0	0	0	507	518	0	508	39	12	
12	0	0	0	0	507	519	0	512	39	11	
13	0	0	0	0	504	520	0	516	39	10	
14	0	0	0	0	507	521	0	513	39	9	
15	0	0	0	0	510	516	0	520	39	9	
0	0	0	0	0	511	510	0	527	39	10	
1	0	0	0	0	514	499	0	523	39	11	
2	0	0	0	0	519	487	0	522	39	12	
3	0	0	0	0	520	474	0	523	39	12	
4	0	0	0	0	512	473	0	525	39	12	
5	0	0	0	0	506	480	0	516	39	11	
6	0	0	0	0	503	490	0	508	39	9	
7	0	0	0	0	502	500	0	495	39	9	
8	0	0	0	0	501	510	0	484	39	10	
9	0	0	0	0	501	516	0	476	38	11	
10	0	0	0	0	503	519	0	483	39	12	
11	0	0	0	0	507	517	0	502	39	12	
12	0	0	0	0	504	514	0	511	39	12	
13	0	0	0	0	503	519	0	528	39	11	
14	0	0	0	0	503	523	0	531	39	10	
15	0	0	0	0	509	521	0	527	39	9	
0	0	0	0	0	509	519	0	522	39	9	
1	0	0	0	0	510	512	0	519	39	10	
2	0	0	0	0	518	499	0	518	39	11	
3	0	0	0	0	520	486	0	511	38	12	
4	0	0	0	0	517	475	0	501	39	12	
5	0	0	0	0	509	476	0	494	39	12	
6	0	0	0	0	503	484	0	487	39	10	
7	0	0	0	0	502	493	0	484	38	9	
8	0	0	0	0	500	502	0	477	39	9	
9	0	0	0	0	501	511	0	468	39	10	
10	0	0	0	0	503	515	0	463	39	11	
11	0	0	0	0	504	515	0	464	39	12	
12	0	0	0	0	506	513	0	460	38	12	
13	0	0	0	0	504	513	0	459	39	12	
14	0	0	0	0	502	515	0	460	39	11	
15	0	0	0	0	504	517	0	460	39	9	
0	0	0	0	0	509	516	0	457	39	9	
1	0	0	0	0	511	510	0	452	39	10	
2	0	0	0	0	514	504	0	453	39	11	
3	0	0	0	0	518	493	0	458	39	12	
4	0	0	0	0	521	480	0	471	39	12	
5	0	0	0	0	514	473	0	503	39	12	
6	0	0	0	0	509	476	0	519	38	11	
7	0	0	0	0	503	486	0	513	39	10	
8	0	0	0	0	500	495	0	500	39	9	
9	0	0	0	0	502	503	0	486	39	9	
10	0	0	0	0	503	509	0	478	39	10	
11	0	0	0	0	502	515	0	468	39	11	
12	0	0	0	0	505	516	0	465	39	12	
13	0	0	0	0	505	512	0	460	39	12	
14	0	0	0	0	504	515	0	460	39	12	
15	0	0	0	0	505	518	0	461	39	10	
0	0	0	0	0	506	519	0	457	39	9	
1	0	0	0	0	510	516	0	471	39	9	
2	0	0	0	0	511	511	0	495	39	10	
3	0	0	0	0	515	503	0	500	39	11	
4	0	0	0	0	519	491	0	499	39	12	
5	0	0	0	0	518	478	0	499	39	12	
6	0	0	0	0	510	476	0	509	38	12	
7	0	0	0	0	506	484	0	523	39	11	
8	0	0	0	0	505	494	0	519	38	9	
9	0	0	0	0	501	502	0	510	39	9	
10	0	0	0	0	499	510	0	521	39	10	
11	0	0	0	0	504	516	0	529	39	11	
12	0	0	0	0	506	518	0	522	39	12	
13	0	0	0	0	509	516	0	510	39	12	
14	0	0	0	0	506	515	0	497	39	12	
15	0	0	0	0	506	518	0	489	39	11	
0	0	0	0	0	504	521	0	499	39	10	
1	0	0	0	0	504	519	0	513	39	9	
2	0	0	0	0	508	513	0	511	39	9	
3	0	0	0	0	512	507	0	503	39	11	
4	0	0	0	0	517	496	0	495	38	12	
5	0	0	0	0	518	484	0	490	38	12	
6	0	0	0	0	513	476	0	487	39	12	
7	0	0	0	0	508	477	0	486	38	12	
8	0	0	0	0	507	485	0	482	39	10	
9	0	0	0	0	504	495	0	475	39	9	
10	0	0	0	0	500	503	0	478	39	9	
11	0	0	0	0	500	511	0	484	39	10	
12	0	0	0	0	505	516	0	508	39	11	
13	0	0	0	0	506	517	0	513	39	12	
14	0	0	0	0	506	515	0	507	39	13	
15	0	0	0	0	506	514	0	494	39	12	
0	0	0	0	0	503	514	0	481	39	11	
1	0	0	0	0	505	515	0	473	39	10	
2	0	0	0	0	510	513	0	493	39	9	
3	0	0	0	0	511	511	0	505	38	10	
4	0	0	0	0	512	506	0	500	38	11	
5	0	0	0	0	515	495	0	496	39	12	
6	0	0	0	0	518	482	0	501	39	13	
7	0	0	0	0	512	475	0	523	39	12	
8	0	0	0	0	509	478	0	536	39	11	
9	0	0	0	0	504	489	0	546	39	10	
10	0	0	0	0	501	499	0	556	39	9	
11	0	0	0	0	500	506	0	552	39	9	
12	0	0	0	0	501	513	0	563	39	11	
13	0	0	0	0	504	515	0	555	39	12	
14	0	0	0	0	508	514	0	554	39	12	
15	0	0	0	0	507	513	0	551	38	13	
0	0	0	0	0	506	515	0	542	38	12	
1	0	0	0	0	505	519	0	544	39	10	
2	0	0	0	0	505	519	0	536	39	9	
3	0	0	0	0	507	514	0	519	38	9	
4	0	0	0	0	508	510	0	504	39	10	
5	0	0	0	0	513	503	0	500	39	11	
6	0	0	0	0	516	490	0	491	39	12	
7	0	0	0	0	517	478	0	512	39	13	
8	0	0	0	0	512	476	0	525	39	12	
9	0	0	0	0	506	482	0	542	39	11	
10	0	0	0	0	504	492	0	552	39	10	
11	0	0	0	0	500	501	0	551	39	9	
12	0	0	0	0	500	510	0	561	38	10	
13	0	0	0	0	501	517	0	564	38	11	
14	0	0	0	0	506	517	0	560	39	12	
15	0	0	0	0	507	515	0	567	39	13	
0	0	0	0	0	503	514	0	558	39	13	
1	0	0	0	0	506	517	0	563	39	12	
2	0	0	0	0	504	520	0	561	38	10	
3	0	0	0	0	509	519	0	556	39	9	
4	0	0	0	0	509	513	0	559	39	10	
5	0	0	0	0	509	506	0	548	39	11	
6	0	0	0	0	517	496	0	557	39	12	
7	0	0	0	0	520	483	0	552	38	13	
8	0	0	0	0	515	474	0	551	39	13	
9	0	0	0	0	511	474	0	559	39	12	
10	0	0	0	0	506	483	0	556	39	11	
11	0	0	0	0	505	493	0	565	38	9	
12	0	0	0	0	501	500	0	563	39	9	
13	0	0	0	0	501	508	0	556	39	10	
14	0	0	0	0	503	513	0	547	39	11	
15	0	0	0	0	506	514	0	556	39	12	
0	0	0	0	0	508	512	0	548	39	13	
1	0	0	0	0	507	512	0	541	39	12	
2	0	0	0	0	505	515	0	536	39	11	
3	0	0	0	0	505	519	0	532	39	10	
4	0	0	0	0	508	517	0	524	39	9	
5	0	0	0	0	512	514	0	509	39	10	
6	0	0	0	0	515	507	0	495	39	11	
7	0	0	0	0	519	495	0	495	39	12	
8	0	0	0	0	519	481	0	499	39	13	
9	0	0	0	0	514	475	0	495	39	13	
10	0	0	0	0	508	480	0	492	39	12	
11	0	0	0	0	504	490	0	487	39	10	
12	0	0	0	0	502	499	0	486	39	9	
13	0	0	0	0	499	511	0	481	39	10	
14	0	0	0	0	498	517	0	477	39	11	
15	0	0	0	0	503	519	0	472	39	12	
0	0	0	0	0	507	519	0	465	39	13	
1	0	0	0	0	506	516	0	462	39	13	
2	0	0	0	0	504	518	0	460	38	12	
3	0	0	0	0	504	521	0	463	39	11	
4	0	0	0	0	506	522	0	462	39	10	
5	0	0	0	0	508	520	0	464	39	9	
6	0	0	0	0	511	515	0	464	39	11	
7	0	0	0	0	517	505	0	463	39	12	
8	0	0	0	0	518	491	0	462	39	12	
9	0	0	0	0	519	477	0	462	39	13	
10	0	0	0	0	511	473	0	467	39	12	
11	0	0	0	0	507	481	0	473	39	11	
12	0	0	0	0	502	492	0	477	39	10	
13	0	0	0	0	501	503	0	480	39	9	
14	0	0	0	0	502	512	0	479	39	10	
15	0	0	0	0	500	519	0	474	39	11	
0	0	0	0	0	504	520	0	480	39	12	
1	0	0	0	0	504	518	0	498	39	13	
2	0	0	0	0	504	517	0	508	39	13	
3	0	0	0	0	504	519	0	526	39	12	
4	0	0	0	0	504	520	0	535	39	10	
5	0	0	0	0	510	520	0	537	39	9	
6	0	0	0	0	511	515	0	546	39	10	
7	0	0	0	0	512	508	0	538	39	11	
8	0	0	0	0	517	499	0	556	39	12	
9	0	0	0	0	518	487	0	541	39	13	
10	0	0	0	0	517	476	0	543	39	13	
11	0	0	0	0	508	478	0	555	39	12	
12	0	0	0	0	504	485	0	549	39	11	
13	0	0	0	0	504	495	0	555	39	10	
14	0	0	0	0	501	505	0	552	39	10	
15	0	0	0	0	500	513	0	545	39	11	
0	0	0	0	0	502	519	0	545	39	12	
1	0	0	0	0	504	519	0	533	38	13	
2	0	0	0	0	507	516	0	533	39	13	
3	0	0	0	0	505	516	0	531	39	13	
4	0	0	0	0	503	519	0	527	39	11	
5	0	0	0	0	505	523	0	534	39	10	
6	0	0	0	0	509	521	0	528	39	10	
7	0	0	0	0	509	515	0	529	39	10	
8	0	0	0	0	515	510	0	524	39	11	
9	0	0	0	0	516	497	0	522	39	12	
10	0	0	0	0	519	483	0	538	39	13	
11	0	0	0	0	515	477	0	537	39	13	
12	0	0	0	0	510	481	0	548	39	12	
13	0	0	0	0	505	491	0	551	39	11	
14	0	0	0	0	500	500	0	548	39	10	
15	0	0	0	0	500	509	0	555	39	10	
0	0	0	0	0	500	517	0	545	39	11	
1	0	0	0	0	504	521	0	547	39	12	
2	0	0	0	0	504	519	0	542	39	13	
3	0	0	0	0	504	514	0	536	39	13	
4	0	0	0	0	503	516	0	524	39	12	
5	0	0	0	0	503	519	0	516	39	11	
6	0	0	0	0	507	519	0	508	39	10	
7	0	0	0	0	508	517	0	495	38	10	
8	0	0	0	0	514	512	0	479	39	11	
9	0	0	0	0	515	502	0	465	39	12	
10	0	0	0	0	519	490	0	460	39	13	
11	0	0	0	0	520	479	0	456	39	13	
12	0	0	0	0	512	476	0	458	38	13	
13	0	0	0	0	508	482	0	460	39	12	
14	0	0	0	0	507	490	0	461	39	10	
15	0	0	0	0	501	499	0	461	39	10	
0	0	0	0	0	500	509	0	455	39	10	
1	0	0	0	0	499	516	0	450	38	12	
2	0	0	0	0	506	518	0	460	39	13	
3	0	0	0	0	507	515	0	483	39	13	
4	0	0	0	0	505	514	0	499	39	13	
5	0	0	0	0	506	517	0	514	39	12	
6	0	0	0	0	505	520	0	521	39	11	
7	0	0	0	0	509	519	0	524	39	10	
8	0	0	0	0	510	516	0	532	39	10	
9	0	0	0	0	511	509	0	524	39	11	
10	0	0	0	0	515	498	0	532	39	12	
11	0	0	0	0	517	487	0	535	39	13	
12	0	0	0	0	516	476	0	533	39	13	
13	0	0	0	0	508	477	0	533	39	13	
14	0	0	0	0	507	483	0	531	39	11	
15	0	0	0	0	506	494	0	529	39	10	
0	0	0	0	0	504	504	0	516	39	10	
1	0	0	0	0	500	514	0	502	38	11	
2	0	0	0	0	498	520	0	490	39	12	
3	0	0	0	0	503	519	0	482	39	13	
4	0	0	0	0	505	517	0	475	39	13	
5	0	0	0	0	506	517	0	469	39	13	
6	0	0	0	0	506	519	0	469	39	12	
7	0	0	0	0	507	520	0	460	39	10	
8	0	0	0	0	509	519	0	455	39	10	
9	0	0	0	0	512	515	0	448	39	11	
10	0	0	0	0	515	508	0	451	39	12	
11	0	0	0	0	519	497	0	464	39	13	
12	0	0	0	0	520	483	0	493	39	13	
13	0	0	0	0	513	476	0	508	39	13	
14	0	0	0	0	505	479	0	531	39	12	
15	0	0	0	0	499	487	0	541	39	11	
0	0	0	0	0	501	496	0	542	38	10	
1	0	0	0	0	502	505	0	548	39	10	
2	0	0	0	0	504	514	0	540	39	11	
3	0	0	0	0	504	517	0	544	39	12	
4	0	0	0	0	507	516	0	544	39	13	
5	0	0	0	0	509	514	0	535	39	14	
6	0	0	0	0	504	516	0	532	39	13	
7	0	0	0	0	504	519	0	540	39	11	
8	0	0	0	0	506	521	0	534	39	10	
9	0	0	0	0	510	518	0	544	39	10	
10	0	0	0	0	512	512	0	542	39	11	
11	0	0	0	0	515	503	0	536	39	12	
12	0	0	0	0	519	490	0	535	39	13	
13	0	0	0	0	517	477	0	536	39	14	
14	0	0	0	0	512	475	0	536	39	13	
15	0	0	0	0	507	480	0	528	39	12	
0	0	0	0	0	502	490	0	516	39	10	
1	0	0	0	0	501	500	0	505	39	10	
2	0	0	0	0	500	509	0	496	39	11	
3	0	0	0	0	502	516	0	486	39	12	
4	0	0	0	0	504	520	0	491	39	13	
5	0	0	0	0	506	518	0	512	39	13	
6	0	0	0	0	506	517	0	519	39	13	
7	0	0	0	0	505	519	0	534	39	12	
8	0	0	0	0	503	522	0	536	39	11	
9	0	0	0	0	507	521	0	532	39	10	
10	0	0	0	0	511	517	0	528	39	10	
11	0	0	0	0	511	509	0	530	39	11	
12	0	0	0	0	516	500	0	527	39	13	
13	0	0	0	0	516	489	0	519	39	13	
14	0	0	0	0	513	479	0	511	39	14	
15	0	0	0	0	507	480	0	505	39	13	
0	0	0	0	0	503	487	0	499	39	11	
1	0	0	0	0	503	497	0	492	38	10	
2	0	0	0	0	500	505	0	487	39	10	
3	0	0	0	0	499	512	0	483	39	11	
4	0	0	0	0	502	515	0	483	39	12	
5	0	0	0	0	505	515	0	480	39	13	
6	0	0	0	0	508	512	0	477	39	14	
7	0	0	0	0	505	512	0	473	39	13	
8	0	0	0	0	506	515	0	466	39	12	
9	0	0	0	0	506	518	0	464	39	10	
10	0	0	0	0	510	516	0	463	39	10	
11	0	0	0	0	513	511	0	464	39	11	
12	0	0	0	0	512	505	0	467	39	12	
13	0	0	0	0	516	494	0	483	39	13	
14	0	0	0	0	519	480	0	519	39	13	
15	0	0	0	0	514	474	0	527	39	13	
0	0	0	0	0	508	480	0	546	39	12	
1	0	0	0	0	505	488	0	553	39	11	
2	0	0	0	0	502	497	0	560	39	10	
3	0	0	0	0	500	505	0	569	39	10	
4	0	0	0	0	501	514	0	564	39	11	
5	0	0	0	0	506	519	0	556	39	12	
6	0	0	0	0	506	517	0	546	39	13	
7	0	0	0	0	505	515	0	542	39	13	
8	0	0	0	0	504	516	0	528	39	13	
9	0	0	0	0	506	521	0	512	39	11	
10	0	0	0	0	507	521	0	498	38	10	
11	0	0	0	0	509	516	0	489	39	10	
12	0	0	0	0	511	511	0	481	39	11	
13	0	0	0	0	515	502	0	476	39	12	
14	0	0	0	0	518	491	0	477	39	13	
15	0	0	0	0	521	479	0	477	38	13	
0	0	0	0	0	511	476	0	479	38	13	
1	0	0	0	0	507	480	0	479	39	12	
2	0	0	0	0	503	488	0	481	39	10	
3	0	0	0	0	500	498	0	482	39	10	
4	0	0	0	0	500	509	0	489	39	10	
5	0	0	0	0	501	514	0	483	39	12	
6	0	0	0	0	504	516	0	480	39	13	
7	0	0	0	0	504	514	0	478	39	13	
8	0	0	0	0	506	514	0	480	39	13	
9	0	0	0	0	504	516	0	499	39	12	
10	0	0	0	0	504	517	0	512	39	11	
11	0	0	0	0	506	516	0	523	39	10	
12	0	0	0	0	509	513	0	542	39	10	
13	0	0	0	0	511	508	0	543	39	11	
14	0	0	0	0	517	499	0	555	39	12	
15	0	0	0	0	519	487	0	558	39	13	
0	0	0	0	0	516	476	0	558	39	13	
1	0	0	0	0	510	476	0	569	39	13	
2	0	0	0	0	503	482	0	563	39	11	
3	0	0	0	0	502	492	0	572	39	10	
4	0	0	0	0	503	501	0	572	39	10	
5	0	0	0	0	499	510	0	568	39	11	
6	0	0	0	0	502	518	0	576	39	12	
7	0	0	0	0	504	518	0	563	39	13	
8	0	0	0	0	507	513	0	566	38	13	
9	0	0	0	0	505	514	0	563	39	13	
10	0	0	0	0	505	517	0	560	39	12	
11	0	0	0	0	503	521	0	565	39	10	
12	0	0	0	0	508	520	0	555	39	10	
13	0	0	0	0	512	515	0	558	38	10	
14	0	0	0	0	513	508	0	555	39	11	
15	0	0	0	0	519	497	0	559	39	12	
0	0	0	0	0	523	480	0	563	39	13	
1	0	0	0	0	515	474	0	556	39	13	
2	0	0	0	0	508	478	0	551	39	12	
3	0	0	0	0	504	486	0	548	39	10	
4	0	0	0	0	502	496	0	545	39	10	
5	0	0	0	0	500	505	0	542	39	10	
6	0	0	0	0	501	513	0	532	39	11	
7	0	0	0	0	504	518	0	519	39	12	
8	0	0	0	0	506	516	0	501	39	13	
9	0	0	0	0	507	514	0	489	39	13	
10	0	0	0	0	505	514	0	481	39	12	
11	0	0	0	0	504	517	0	476	39	11	
12	0	0	0	0	505	520	0	474	39	10	
13	0	0	0	0	510	516	0	467	39	10	
14	0	0	0	0	511	512	0	467	39	11	
15	0	0	0	0	515	503	0	467	38	12	
0	0	0	0	0	517	491	0	472	39	13	
1	0	0	0	0	519	477	0	472	39	13	
2	0	0	0	0	511	475	0	476	39	13	
3	0	0	0	0	504	482	0	481	39	11	
4	0	0	0	0	503	490	0	484	39	10	
5	0	0	0	0	503	500	0	485	39	9	
6	0	0	0	0	502	507	0	488	39	10	
7	0	0	0	0	503	513	0	483	39	11	
8	0	0	0	0	504	515	0	488	39	12	
9	0	0	0	0	508	514	0	506	39	13	
10	0	0	0	0	506	512	0	512	39	13	
11	0	0	0	0	504	515	0	532	39	12	
12	0	0	0	0	506	518	0	539	38	10	
13	0	0	0	0	507	518	0	542	38	9	
14	0	0	0	0	511	514	0	552	39	10	
15	0	0	0	0	509	508	0	544	39	11	
0	0	0	0	0	515	499	0	560	38	12	
1	0	0	0	0	519	487	0	550	39	13	
2	0	0	0	0	519	478	0	552	39	13	
3	0	0	0	0	511	479	0	563	39	12	
4	0	0	0	0	504	486	0	562	39	11	
5	0	0	0	0	501	496	0	567	39	10	
6	0	0	0	0	501	505	0	562	39	10	
7	0	0	0	0	502	515	0	554	39	11	
8	0	0	0	0	502	520	0	556	39	12	
9	0	0	0	0	505	519	0	546	39	13	
10	0	0	0	0	506	516	0	536	39	13	
11	0	0	0	0	506	515	0	529	39	13	
12	0	0	0	0	503	518	0	526	39	11	
13	0	0	0	0	505	519	0	519	39	10	
14	0	0	0	0	508	516	0	504	39	9	
15	0	0	0	0	510	512	0	492	38	10	
0	0	0	0	0	512	504	0	483	39	11	
1	0	0	0	0	516	493	0	486	39	12	
2	0	0	0	0	518	481	0	496	39	13	
3	0	0	0	0	514	474	0	493	39	13	
4	0	0	0	0	505	477	0	492	38	12	
5	0	0	0	0	504	486	0	489	39	10	
6	0	0	0	0	501	496	0	490	39	9	
7	0	0	0	0	501	504	0	483	38	10	
8	0	0	0	0	501	513	0	475	39	11	
9	0	0	0	0	504	516	0	466	38	12	
10	0	0	0	0	507	515	0	462	39	13	
11	0	0	0	0	508	513	0	465	39	13	
12	0	0	0	0	505	514	0	466	39	12	
13	0	0	0	0	504	519	0	468	39	11	
14	0	0	0	0	507	519	0	466	39	10	
15	0	0	0	0	509	515	0	463	38	10	
0	0	0	0	0	511	510	0	464	39	11	
1	0	0	0	0	515	500	0	456	39	12	
2	0	0	0	0	518	490	0	461	39	13	
3	0	0	0	0	518	478	0	467	39	13	
4	0	0	0	0	511	476	0	475	39	13	
5	0	0	0	0	506	484	0	479	39	11	
6	0	0	0	0	504	493	0	482	39	10	
7	0	0	0	0	500	503	0	483	39	9	
8	0	0	0	0	502	511	0	476	38	10	
9	0	0	0	0	502	518	0	474	39	11	
10	0	0	0	0	505	519	0	482	39	12	
11	0	0	0	0	505	516	0	505	39	13	
12	0	0	0	0	505	515	0	511	39	13	
13	0	0	0	0	504	518	0	504	39	12	
14	0	0	0	0	504	521	0	508	39	10	
15	0	0	0	0	505	521	0	479	39	10	
0	0	0	0	0	508	517	0	465	39	10	
1	0	0	0	0	513	511	0	457	39	11	
2	0	0	0	0	519	500	0	456	39	12	
3	0	0	0	0	521	487	0	457	39	13	
4	0	0	0	0	516	478	0	462	39	13	
5	0	0	0	0	511	477	0	468	39	12	
6	0	0	0	0	506	487	0	475	39	11	
7	0	0	0	0	504	496	0	484	39	10	
8	0	0	0	0	500	506	0	470	39	10	
9	0	0	0	0	499	516	0	466	39	11	
10	0	0	0	0	503	522	0	463	39	12	
11	0	0	0	0	507	524	0	467	39	13	
12	0	0	0	0	508	520	0	465	39	13	
13	0	0	0	0	506	518	0	465	39	13	
14	0	0	0	0	505	520	0	464	39	11	
15	0	0	0	0	504	521	0	459	39	10	
0	0	0	0	0	509	518	0	454	39	9	
1	0	0	0	0	511	514	0	449	38	10	
2	0	0	0	0	512	507	0	452	39	11	
3	0	0	0	0	516	494	0	456	39	12	
4	0	0	0	0	519	481	0	469	39	13	
5	0	0	0	0	515	474	0	471	39	13	
6	0	0	0	0	508	478	0	475	39	12	
7	0	0	0	0	503	486	0	476	39	10	
8	0	0	0	0	500	497	0	477	39	10	
9	0	0	0	0	500	506	0	479	39	10	
10	0	0	0	0	502	513	0	505	39	11	
11	0	0	0	0	504	516	0	516	39	12	
12	0	0	0	0	506	516	0	531	39	13	
13	0	0	0	0	507	515	0	546	39	13	
14	0	0	0	0	503	516	0	544	39	12	
15	0	0	0	0	504	519	0	554	39	11	
0	0	0	0	0	505	520	0	546	39	10	
1	0	0	0	0	510	516	0	544	39	10	
2	0	0	0	0	511	511	0	551	39	11	
3	0	0	0	0	513	501	0	547	39	12	
4	0	0	0	0	518	488	0	558	39	13	
5	0	0	0	0	518	475	0	554	39	13	
6	0	0	0	0	513	473	0	558	39	13	
7	0	0	0	0	507	481	0	570	39	11	
8	0	0	0	0	503	491	0	556	39	10	
9	0	0	0	0	502	501	0	563	39	9	
10	0	0	0	0	498	511	0	556	39	10	
11	0	0	0	0	502	516	0	556	39	11	
12	0	0	0	0	507	519	0	557	39	12	
13	0	0	0	0	508	517	0	549	39	13	
14	0	0	0	0	505	517	0	552	39	13	
15	0	0	0	0	504	519	0	542	39	12	
0	0	0	0	0	504	521	0	536	39	11	
1	0	0	0	0	507	518	0	536	39	10	
2	0	0	0	0	509	515	0	528	39	10	
3	0	0	0	0	512	508	0	540	39	11	
4	0	0	0	0	516	500	0	540	39	12	
5	0	0	0	0	519	487	0	546	39	13	
6	0	0	0	0	515	477	0	552	39	13	
7	0	0	0	0	511	478	0	547	39	12	
8	0	0	0	0	504	483	0	563	39	11	
9	0	0	0	0	504	493	0	553	39	10	
10	0	0	0	0	501	503	0	555	39	10	
11	0	0	0	0	499	512	0	556	39	11	
12	0	0	0	0	504	516	0	552	39	12	
13	0	0	0	0	505	517	0	559	39	13	
14	0	0	0	0	508	516	0	552	39	13	
15	0	0	0	0	505	518	0	552	39	13	
0	0	0	0	0	504	519	0	553	39	11	
1	0	0	0	0	506	522	0	543	39	10	
2	0	0	0	0	507	519	0	549	39	9	
3	0	0	0	0	508	516	0	546	39	10	
4	0	0	0	0	513	510	0	549	39	11	
5	0	0	0	0	519	496	0	552	39	12	
6	0	0	0	0	521	484	0	552	39	13	
7	0	0	0	0	514	478	0	558	39	13	
8	0	0	0	0	508	483	0	550	39	12	
9	0	0	0	0	506	491	0	551	39	11	
10	0	0	0	0	502	501	0	557	39	10	
11	0	0	0	0	499	510	0	551	39	10	
12	0	0	0	0	501	516	0	559	39	11	
13	0	0	0	0	504	519	0	553	39	12	
14	0	0	0	0	506	518	0	551	39	13	
15	0	0	0	0	507	514	0	565	39	13	
0	0	0	0	0	504	515	0	539	39	12	
1	0	0	0	0	505	520	0	545	39	11	
2	0	0	0	0	508	521	0	539	39	10	
3	0	0	0	0	510	517	0	542	39	10	
4	0	0	0	0	512	510	0	549	39	11	
5	0	0	0	0	515	500	0	549	39	12	
6	0	0	0	0	517	489	0	565	39	13	
7	0	0	0	0	519	477	0	568	39	13	
8	0	0	0	0	510	476	0	574	38	13	
9	0	0	0	0	504	480	0	575	39	12	
10	0	0	0	0	502	492	0	568	39	10	
11	0	0	0	0	501	501	0	574	39	10	
12	0	0	0	0	502	509	0	567	39	10	
13	0	0	0	0	501	516	0	564	39	11	
14	0	0	0	0	504	516	0	566	39	12	
15	0	0	0	0	507	513	0	556	39	13	
0	0	0	0	0	510	512	0	563	39	13	
1	0	0	0	0	505	516	0	551	39	12	
2	0	0	0	0	504	520	0	550	39	11	
3	0	0	0	0	504	522	0	553	39	10	
4	0	0	0	0	507	518	0	549	39	10	
5	0	0	0	0	510	511	0	566	39	11	
6	0	0	0	0	516	503	0	559	39	12	
7	0	0	0	0	519	490	0	564	39	13	
8	0	0	0	0	518	478	0	571	39	13	
9	0	0	0	0	511	480	0	561	39	12	
10	0	0	0	0	505	487	0	543	39	11	
11	0	0	0	0	502	497	0	527	39	10	
12	0	0	0	0	502	506	0	513	39	10	
13	0	0	0	0	502	514	0	502	39	11	
14	0	0	0	0	502	519	0	497	39	12	
15	0	0	0	0	504	520	0	487	39	13	
0	0	0	0	0	508	517	0	480	38	13	
1	0	0	0	0	505	516	0	476	39	13	
2	0	0	0	0	504	518	0	475	39	12	
3	0	0	0	0	504	520	0	476	39	10	
4	0	0	0	0	508	518	0	476	39	10	
5	0	0	0	0	511	514	0	476	39	10	
6	0	0	0	0	511	508	0	474	39	11	
7	0	0	0	0	517	496	0	480	39	12	
8	0	0	0	0	520	483	0	477	39	13	
9	0	0	0	0	514	476	0	479	39	13	
10	0	0	0	0	508	480	0	481	39	12	
11	0	0	0	0	503	488	0	485	38	11	
12	0	0	0	0	501	497	0	492	39	10	
13	0	0	0	0	499	507	0	490	39	10	
14	0	0	0	0	500	514	0	490	39	11	
15	0	0	0	0	507	516	0	487	39	12	
0	0	0	0	0	504	515	0	482	39	13	
1	0	0	0	0	505	515	0	481	39	13	
2	0	0	0	0	504	514	0	478	39	12	
3	0	0	0	0	507	517	0	480	39	11	
4	0	0	0	0	507	518	0	503	38	10	
5	0	0	0	0	510	516	0	521	39	10	
6	0	0	0	0	513	511	0	531	39	11	
7	0	0	0	0	516	502	0	550	39	12	
8	0	0	0	0	517	491	0	552	39	13	
9	0	0	0	0	520	479	0	566	39	13	
10	0	0	0	0	512	476	0	569	39	13	
11	0	0	0	0	507	480	0	587	39	12	
12	0	0	0	0	503	489	0	583	39	10	
13	0	0	0	0	500	499	0	576	39	10	
14	0	0	0	0	501	508	0	582	39	10	
15	0	0	0	0	502	515	0	578	39	11	
0	0	0	0	0	503	517	0	575	39	12	
1	0	0	0	0	505	515	0	577	39	13	
2	0	0	0	0	508	515	0	568	39	13	
3	0	0	0	0	506	519	0	572	39	12	
4	0	0	0	0	505	522	0	569	38	11	
5	0	0	0	0	508	521	0	563	39	10	
6	0	0	0	0	508	517	0	566	39	10	
7	0	0	0	0	511	509	0	552	39	11	
8	0	0	0	0	515	499	0	556	39	12	
9	0	0	0	0	519	487	0	557	39	13	
10	0	0	0	0	518	478	0	559	39	13	
11	0	0	0	0	509	479	0	570	39	13	
12	0	0	0	0	504	486	0	566	39	11	
13	0	0	0	0	502	495	0	573	39	10	
14	0	0	0	0	499	505	0	572	39	10	
15	0	0	0	0	502	515	0	567	38	11	
0	0	0	0	0	503	521	0	568	39	12	
1	0	0	0	0	506	521	0	553	39	13	
2	0	0	0	0	508	520	0	554	38	13	
3	0	0	0	0	507	519	0	552	39	13	
4	0	0	0	0	506	519	0	549	39	12	
5	0	0	0	0	503	522	0	555	38	10	
6	0	0	0	0	509	522	0	545	39	10	
7	0	0	0	0	512	516	0	545	38	10	
8	0	0	0	0	514	511	0	540	39	12	
9	0	0	0	0	519	499	0	536	39	13	
10	0	0	0	0	520	486	0	550	39	13	
11	0	0	0	0	517	479	0	549	39	13	
12	0	0	0	0	510	482	0	561	38	12	
13	0	0	0	0	502	490	0	563	39	11	
14	0	0	0	0	503	499	0	561	39	10	
15	0	0	0	0	502	507	0	565	39	10	
0	0	0	0	0	500	516	0	553	39	11	
1	0	0	0	0	503	518	0	543	39	12	
2	0	0	0	0	504	515	0	541	39	13	
3	0	0	0	0	508	513	0	532	39	14	
4	0	0	0	0	507	516	0	528	39	13	
5	0	0	0	0	505	519	0	521	39	11	
6	0	0	0	0	506	520	0	509	39	10	
7	0	0	0	0	510	518	0	493	39	10	
8	0	0	0	0	510	513	0	482	38	11	
9	0	0	0	0	515	504	0	475	39	12	
10	0	0	0	0	517	492	0	471	39	13	
11	0	0	0	0	518	479	0	472	39	14	
12	0	0	0	0	511	476	0	470	39	13	
13	0	0	0	0	504	481	0	471	39	12	
14	0	0	0	0	503	489	0	470	39	11	
15	0	0	0	0	502	499	0	473	39	10	
0	0	0	0	0	500	509	0	466	38	11	
1	0	0	0	0	501	515	0	461	39	12	
2	0	0	0	0	504	517	0	470	39	13	
3	0	0	0	0	506	515	0	492	39	14	
4	0	0	0	0	505	514	0	503	39	14	
5	0	0	0	0	504	516	0	518	39	13	
6	0	0	0	0	503	519	0	522	39	11	
7	0	0	0	0	507	520	0	521	39	10	
8	0	0	0	0	511	517	0	526	39	10	
9	0	0	0	0	513	511	0	518	39	12	
10	0	0	0	0	519	502	0	511	39	13	
11	0	0	0	0	521	491	0	510	39	14	
12	0	0	0	0	518	479	0	511	39	14	
13	0	0	0	0	508	478	0	507	39	13	
14	0	0	0	0	502	484	0	499	39	12	
15	0	0	0	0	499	494	0	488	39	10	
0	0	0	0	0	499	503	0	476	39	10	
1	0	0	0	0	500	511	0	465	39	11	
2	0	0	0	0	503	515	0	457	39	12	
3	0	0	0	0	505	516	0	453	38	13	
4	0	0	0	0	505	515	0	447	39	14	
5	0	0	0	0	505	516	0	446	38	14	
6	0	0	0	0	505	519	0	443	39	12	
7	0	0	0	0	506	521	0	441	39	11	
8	0	0	0	0	508	519	0	438	38	10	
9	0	0	0	0	511	513	0	432	39	11	
10	0	0	0	0	515	506	0	428	38	12	
11	0	0	0	0	518	494	0	444	39	13	
12	0	0	0	0	519	481	0	473	39	14	
13	0	0	0	0	513	473	0	492	38	14	
14	0	0	0	0	510	476	0	511	39	13	
15	0	0	0	0	502	485	0	520	39	11	
0	0	0	0	0	502	495	0	523	39	10	
1	0	0	0	0	499	503	0	538	39	11	
2	0	0	0	0	497	512	0	531	39	12	
3	0	0	0	0	501	516	0	536	39	13	
4	0	0	0	0	504	515	0	533	39	14	
5	0	0	0	0	507	512	0	525	39	14	
6	0	0	0	0	503	512	0	519	39	14	
7	0	0	0	0	506	517	0	513	39	12	
8	0	0	0	0	507	517	0	506	39	11	
9	0	0	0	0	507	515	0	491	39	11	
10	0	0	0	0	511	510	0	477	39	12	
11	0	0	0	0	514	502	0	468	39	13	
12	0	0	0	0	518	488	0	463	39	14	
13	0	0	0	0	517	476	0	460	39	14	
14	0	0	0	0	511	472	0	457	39	14	
15	0	0	0	0	507	477	0	456	39	13	
0	0	0	0	0	504	485	0	453	39	11	
1	0	0	0	0	502	496	0	450	39	11	
2	0	0	0	0	501	507	0	447	39	11	
3	0	0	0	0	502	515	0	448	39	13	
4	0	0	0	0	504	516	0	459	39	14	
5	0	0	0	0	507	515	0	485	39	14	
6	0	0	0	0	508	514	0	490	39	14	
7	0	0	0	0	506	515	0	484	39	13	
8	0	0	0	0	507	517	0	487	38	12	
9	0	0	0	0	508	517	0	493	38	11	
10	0	0	0	0	511	513	0	497	38	11	
11	0	0	0	0	513	507	0	512	38	12	
12	0	0	0	0	517	496	0	515	38	14	
13	0	0	0	0	521	483	0	524	39	14	
14	0	0	0	0	517	473	0	535	39	15	
15	0	0	0	0	511	476	0	541	39	14	
0	0	0	0	0	505	483	0	542	39	12	
1	0	0	0	0	505	493	0	537	39	11	
2	0	0	0	0	503	502	0	538	39	11	
3	0	0	0	0	500	513	0	544	39	12	
4	0	0	0	0	505	516	0	534	39	13	
5	0	0	0	0	506	517	0	540	39	14	
6	0	0	0	0	508	513	0	534	39	15	
7	0	0	0	0	507	512	0	534	39	15	
8	0	0	0	0	503	515	0	535	39	13	
9	0	0	0	0	502	518	0	520	39	12	
10	0	0	0	0	507	515	0	524	39	11	
11	0	0	0	0	509	511	0	518	39	12	
12	0	0	0	0	511	505	0	512	39	13	
13	0	0	0	0	516	493	0	528	39	14	
14	0	0	0	0	519	481	0	531	39	15	
15	0	0	0	0	513	474	0	530	39	15	
0	0	0	0	0	508	477	0	529	39	14	
1	0	0	0	0	503	483	0	527	39	12	
2	0	0	0	0	502	492	0	527	39	11	
3	0	0	0	0	500	500	0	524	39	11	
4	0	0	0	0	502	512	0	518	39	13	
5	0	0	0	0	504	515	0	503	39	14	
6	0	0	0	0	503	515	0	490	39	15	
7	0	0	0	0	504	512	0	477	39	15	
8	0	0	0	0	505	512	0	468	39	14	
9	0	0	0	0	504	515	0	462	39	13	
10	0	0	0	0	505	518	0	456	39	11	
11	0	0	0	0	509	514	0	452	38	11	
12	0	0	0	0	511	509	0	451	39	12	
13	0	0	0	0	515	500	0	452	39	14	
14	0	0	0	0	518	488	0	459	39	15	
15	0	0	0	0	520	476	0	460	39	15	
0	0	0	0	0	511	474	0	461	39	15	
1	0	0	0	0	506	480	0	460	39	14	
2	0	0	0	0	503	489	0	463	39	12	
3	0	0	0	0	500	499	0	468	39	11	
4	0	0	0	0	500	507	0	467	39	12	
5	0	0	0	0	502	516	0	466	39	13	
6	0	0	0	0	504	517	0	477	39	14	
7	0	0	0	0	508	514	0	499	39	15	
8	0	0	0	0	507	513	0	504	39	15	
9	0	0	0	0	505	514	0	519	39	14	
10	0	0	0	0	503	516	0	527	39	12	
11	0	0	0	0	506	515	0	532	39	11	
12	0	0	0	0	509	512	0	543	39	12	
13	0	0	0	0	512	509	0	537	39	13	
14	0	0	0	0	514	499	0	546	39	14	
15	0	0	0	0	516	487	0	542	39	15	
0	0	0	0	0	518	476	0	543	38	16	
1	0	0	0	0	513	477	0	552	38	15	
2	0	0	0	0	509	484	0	545	39	13	
3	0	0	0	0	502	493	0	553	38	12	
4	0	0	0	0	501	504	0	555	39	11	
5	0	0	0	0	500	513	0	552	39	12	
6	0	0	0	0	503	517	0	560	39	14	
7	0	0	0	0	508	517	0	547	39	15	
8	0	0	0	0	509	515	0	546	39	16	
9	0	0	0	0	507	516	0	539	39	15	
10	0	0	0	0	505	518	0	534	39	14	
11	0	0	0	0	506	521	0	544	39	12	
12	0	0	0	0	509	519	0	533	39	11	
13	0	0	0	0	511	516	0	516	39	12	
14	0	0	0	0	513	510	0	497	39	13	
15	0	0	0	0	515	499	0	485	39	15	
0	0	0	0	0	519	485	0	482	39	15	
1	0	0	0	0	515	477	0	505	39	15	
2	0	0	0	0	509	479	0	516	39	14	
3	0	0	0	0	505	487	0	529	39	13	
4	0	0	0	0	503	497	0	543	39	11	
5	0	0	0	0	501	508	0	541	39	12	
6	0	0	0	0	500	517	0	551	39	13	
7	0	0	0	0	504	520	0	544	39	14	
8	0	0	0	0	505	519	0	543	39	15	
9	0	0	0	0	505	518	0	554	39	16	
10	0	0	0	0	505	519	0	537	39	15	
11	0	0	0	0	505	521	0	543	39	13	
12	0	0	0	0	507	520	0	534	39	12	
13	0	0	0	0	508	517	0	527	39	11	
14	0	0	0	0	511	511	0	525	39	13	
15	0	0	0	0	513	503	0	536	39	14	
0	0	0	0	0	519	492	0	531	39	15	
1	0	0	0	0	519	480	0	540	39	16	
2	0	0	0	0	510	475	0	546	39	15	
3	0	0	0	0	504	480	0	544	39	14	
4	0	0	0	0	502	491	0	534	39	12	
5	0	0	0	0	501	500	0	516	39	11	
6	0	0	0	0	499	511	0	501	39	12	
7	0	0	0	0	502	518	0	484	39	14	
8	0	0	0	0	504	518	0	470	39	15	
9	0	0	0	0	508	517	0	456	39	16	
10	0	0	0	0	505	518	0	452	39	16	
11	0	0	0	0	505	517	0	453	38	14	
12	0	0	0	0	504	520	0	451	39	13	
13	0	0	0	0	508	519	0	452	39	11	
14	0	0	0	0	511	516	0	452	39	12	
15	0	0	0	0	513	509	0	455	39	13	
0	0	0	0	0	517	499	0	467	38	14	
1	0	0	0	0	520	487	0	456	38	15	
2	0	0	0	0	516	476	0	463	39	16	
3	0	0	0	0	509	476	0	469	38	15	
4	0	0	0	0	504	484	0	474	39	13	
5	0	0	0	0	502	495	0	477	39	12	
6	0	0	0	0	502	503	0	476	39	11	
7	0	0	0	0	501	512	0	486	39	13	
8	0	0	0	0	502	515	0	507	39	14	
9	0	0	0	0	505	516	0	512	39	15	
10	0	0	0	0	506	512	0	504	39	16	
11	0	0	0	0	502	512	0	494	39	15	
12	0	0	0	0	502	515	0	484	39	14	
13	0	0	0	0	506	519	0	476	39	12	
14	0	0	0	0	508	519	0	474	39	11	
15	0	0	0	0	512	516	0	488	39	12	
0	0	0	0	0	515	509	0	496	39	14	
1	0	0	0	0	516	496	0	493	39	15	
2	0	0	0	0	516	483	0	493	39	16	
3	0	0	0	0	514	474	0	488	39	16	
4	0	0	0	0	511	477	0	486	39	15	
5	0	0	0	0	504	485	0	484	38	13	
6	0	0	0	0	502	496	0	479	39	12	
7	0	0	0	0	500	506	0	481	38	12	
8	0	0	0	0	501	514	0	496	38	13	
9	0	0	0	0	505	517	0	499	38	14	
10	0	0	0	0	506	518	0	491	38	15	
11	0	0	0	0	508	515	0	484	39	16	
12	0	0	0	0	506	519	0	484	38	15	
13	0	0	0	0	504	521	0	506	39	13	
14	0	0	0	0	507	522	0	513	39	12	
15	0	0	0	0	508	517	0	503	39	12	
0	0	0	0	0	512	512	0	488	39	13	
1	0	0	0	0	517	504	0	478	39	14	
2	0	0	0	0	518	492	0	471	39	15	
3	0	0	0	0	518	480	0	468	39	16	
4	0	0	0	0	511	475	0	469	39	15	
5	0	0	0	0	508	480	0	472	39	14	
6	0	0	0	0	503	490	0	497	39	12	
7	0	0	0	0	503	501	0	507	39	11	
8	0	0	0	0	501	509	0	513	39	12	
9	0	0	0	0	502	515	0	522	39	14	
10	0	0	0	0	503	518	0	536	39	15	
11	0	0	0	0	507	518	0	533	39	16	
12	0	0	0	0	508	516	0	548	39	16	
13	0	0	0	0	505	518	0	546	39	15	
14	0	0	0	0	503	520	0	548	39	13	
15	0	0	0	0	508	519	0	552	39	12	
0	0	0	0	0	512	515	0	539	39	12	
1	0	0	0	0	512	506	0	546	39	13	
2	0	0	0	0	516	496	0	543	38	14	
3	0	0	0	0	521	485	0	548	39	15	
4	0	0	0	0	517	476	0	552	39	16	
5	0	0	0	0	512	477	0	545	39	15	
6	0	0	0	0	505	486	0	541	39	13	
7	0	0	0	0	503	497	0	549	39	12	
8	0	0	0	0	499	508	0	550	39	12	
9	0	0	0	0	498	516	0	540	39	13	
10	0	0	0	0	503	521	0	531	38	14	
11	0	0	0	0	503	521	0	523	39	15	
12	0	0	0	0	504	518	0	518	38	16	
13	0	0	0	0	505	517	0	501	39	15	
14	0	0	0	0	503	518	0	485	39	14	
15	0	0	0	0	504	522	0	473	39	12	
0	0	0	0	0	507	519	0	466	39	11	
1	0	0	0	0	510	515	0	454	39	12	
2	0	0	0	0	514	507	0	450	39	14	
3	0	0	0	0	518	495	0	450	39	15	
4	0	0	0	0	519	481	0	452	39	16	
5	0	0	0	0	513	474	0	464	39	16	
6	0	0	0	0	508	478	0	488	39	15	
7	0	0	0	0	504	485	0	504	39	13	
8	0	0	0	0	504	494	0	516	39	12	
9	0	0	0	0	500	503	0	533	39	12	
10	0	0	0	0	502	511	0	538	39	13	
11	0	0	0	0	502	515	0	543	38	15	
12	0	0	0	0	504	515	0	544	39	15	
13	0	0	0	0	507	513	0	541	39	16	
14	0	0	0	0	505	514	0	550	39	15	
15	0	0	0	0	504	516	0	537	39	13	
0	0	0	0	0	504	517	0	539	39	12	
1	0	0	0	0	510	515	0	535	39	12	
2	0	0	0	0	513	511	0	530	39	13	
3	0	0	0	0	515	502	0	523	39	14	
4	0	0	0	0	518	492	0	521	39	15	
5	0	0	0	0	519	480	0	523	39	16	
6	0	0	0	0	512	474	0	527	39	15	
7	0	0	0	0	508	479	0	519	39	14	
8	0	0	0	0	505	489	0	507	39	12	
9	0	0	0	0	502	501	0	496	39	12	
10	0	0	0	0	500	511	0	486	39	12	
11	0	0	0	0	503	517	0	479	39	14	
12	0	0	0	0	504	519	0	467	39	15	
13	0	0	0	0	505	517	0	466	39	16	
14	0	0	0	0	502	515	0	490	39	16	
15	0	0	0	0	502	516	0	499	39	15	
0	0	0	0	0	504	519	0	512	39	13	
1	0	0	0	0	509	519	0	524	39	12	
2	0	0	0	0	510	516	0	521	39	12	
3	0	0	0	0	513	510	0	534	38	13	
4	0	0	0	0	515	498	0	536	39	15	
5	0	0	0	0	520	484	0	539	39	16	
6	0	0	0	0	518	475	0	547	39	16	
7	0	0	0	0	513	476	0	543	39	15	
8	0	0	0	0	507	483	0	553	39	13	
9	0	0	0	0	502	493	0	545	39	12	
10	0	0	0	0	501	504	0	544	39	12	
11	0	0	0	0	501	513	0	547	39	13	
12	0	0	0	0	501	518	0	536	39	14	
13	0	0	0	0	504	517	0	529	39	15	
14	0	0	0	0	507	516	0	531	39	16	
15	0	0	0	0	507	514	0	526	39	16	
0	0	0	0	0	505	515	0	517	38	14	
1	0	0	0	0	506	518	0	512	38	12	
2	0	0	0	0	507	517	0	510	38	12	
3	0	0	0	0	510	514	0	504	38	12	
4	0	0	0	0	511	507	0	495	38	14	
5	0	0	0	0	516	495	0	494	38	15	
6	0	0	0	0	519	481	0	495	39	16	
7	0	0	0	0	515	473	0	491	39	16	
8	0	0	0	0	509	476	0	487	39	15	
9	0	0	0	0	506	484	0	482	39	13	
10	0	0	0	0	501	495	0	478	39	12	
11	0	0	0	0	497	506	0	486	39	12	
12	0	0	0	0	500	513	0	470	39	13	
13	0	0	0	0	504	516	0	465	39	15	
14	0	0	0	0	502	516	0	462	39	16	
15	0	0	0	0	505	514	0	460	39	16	
0	0	0	0	0	504	517	0	451	39	15	
1	0	0	0	0	504	521	0	447	39	14	
2	0	0	0	0	505	522	0	443	39	12	
3	0	0	0	0	507	520	0	444	39	12	
4	0	0	0	0	512	515	0	445	39	13	
5	0	0	0	0	515	506	0	448	39	14	
6	0	0	0	0	517	492	0	452	39	15	
7	0	0	0	0	520	478	0	455	39	16	
8	0	0	0	0	513	473	0	461	39	16	
9	0	0	0	0	507	480	0	458	38	14	
10	0	0	0	0	502	488	0	460	39	12	
11	0	0	0	0	502	496	0	464	39	12	
12	0	0	0	0	499	507	0	466	39	12	
13	0	0	0	0	502	514	0	463	38	14	
14	0	0	0	0	505	518	0	473	39	15	
15	0	0	0	0	509	517	0	495	39	16	
0	0	0	0	0	505	517	0	503	39	16	
1	0	0	0	0	504	518	0	518	39	15	
2	0	0	0	0	504	522	0	524	39	13	
3	0	0	0	0	507	521	0	527	39	12	
4	0	0	0	0	510	516	0	538	39	12	
5	0	0	0	0	512	510	0	532	39	13	
6	0	0	0	0	516	501	0	539	39	15	
7	0	0	0	0	519	491	0	540	39	16	
8	0	0	0	0	518	479	0	540	38	16	
9	0	0	0	0	510	477	0	569	39	15	
10	0	0	0	0	506	484	0	550	39	14	
11	0	0	0	0	506	493	0	558	38	12	
12	0	0	0	0	502	502	0	558	39	12	
13	0	0	0	0	500	511	0	557	39	13	
14	0	0	0	0	504	516	0	559	39	14	
15	0	0	0	0	506	516	0	547	39	15	
0	0	0	0	0	508	513	0	548	39	16	
1	0	0	0	0	507	514	0	544	38	16	
2	0	0	0	0	505	518	0	542	38	14	
3	0	0	0	0	505	520	0	550	39	12	
4	0	0	0	0	508	521	0	542	39	12	
5	0	0	0	0	511	515	0	547	39	12	
6	0	0	0	0	513	506	0	549	39	14	
7	0	0	0	0	517	495	0	547	39	15	
8	0	0	0	0	521	481	0	556	39	16	
9	0	0	0	0	516	473	0	550	39	16	
10	0	0	0	0	509	478	0	547	39	15	
11	0	0	0	0	504	487	0	542	39	13	
12	0	0	0	0	500	496	0	531	39	12	
13	0	0	0	0	500	504	0	515	39	12	
14	0	0	0	0	499	511	0	502	39	13	
15	0	0	0	0	504	515	0	488	39	15	
0	0	0	0	0	504	516	0	487	39	16	
1	0	0	0	0	507	515	0	483	39	16	
2	0	0	0	0	507	516	0	480	39	15	
3	0	0	0	0	503	518	0	473	39	14	
4	0	0	0	0	505	519	0	466	39	12	
5	0	0	0	0	508	515	0	462	38	12	
6	0	0	0	0	513	510	0	464	39	13	
7	0	0	0	0	512	501	0	461	38	14	
8	0	0	0	0	515	489	0	462	38	15	
9	0	0	0	0	516	478	0	461	38	16	
10	0	0	0	0	510	475	0	467	38	16	
11	0	0	0	0	508	481	0	471	38	14	
12	0	0	0	0	501	489	0	474	39	13	
13	0	0	0	0	502	500	0	477	39	12	
14	0	0	0	0	501	509	0	477	39	12	
15	0	0	0	0	502	515	0	469	39	14	
0	0	0	0	0	503	517	0	475	39	15	
1	0	0	0	0	505	515	0	493	39	16	
2	0	0	0	0	506	515	0	499	39	16	
3	0	0	0	0	507	517	0	520	39	15	
4	0	0	0	0	506	521	0	528	39	13	
5	0	0	0	0	507	521	0	534	39	12	
6	0	0	0	0	508	516	0	543	39	12	
7	0	0	0	0	510	510	0	537	39	13	
8	0	0	0	0	515	501	0	554	39	15	
9	0	0	0	0	519	488	0	549	39	16	
10	0	0	0	0	520	477	0	551	39	16	
11	0	0	0	0	512	477	0	561	39	15	
12	0	0	0	0	508	483	0	559	39	14	
13	0	0	0	0	501	495	0	564	39	12	
14	0	0	0	0	501	506	0	562	39	12	
15	0	0	0	0	502	513	0	557	39	13	
0	0	0	0	0	498	518	0	560	39	14	
1	0	0	0	0	503	517	0	544	38	15	
2	0	0	0	0	507	515	0	547	38	16	
3	0	0	0	0	507	515	0	545	39	16	
4	0	0	0	0	506	517	0	542	39	14	
5	0	0	0	0	505	520	0	551	39	13	
6	0	0	0	0	508	517	0	539	39	12	
7	0	0	0	0	509	512	0	541	38	12	
8	0	0	0	0	513	504	0	535	38	14	
9	0	0	0	0	515	494	0	533	38	15	
10	0	0	0	0	518	481	0	542	39	16	
11	0	0	0	0	515	472	0	542	39	16	
12	0	0	0	0	508	475	0	540	39	15	
13	0	0	0	0	504	484	0	538	39	13	
14	0	0	0	0	503	496	0	539	39	12	
15	0	0	0	0	502	505	0	527	39	12	
0	0	0	0	0	502	515	0	513	39	13	
1	0	0	0	0	504	518	0	496	39	15	
2	0	0	0	0	507	517	0	483	39	16	
3	0	0	0	0	505	513	0	490	39	16	
4	0	0	0	0	504	513	0	468	39	15	
5	0	0	0	0	507	517	0	465	39	14	
6	0	0	0	0	506	521	0	460	39	12	
7	0	0	0	0	509	518	0	460	39	12	
8	0	0	0	0	512	512	0	455	39	13	
9	0	0	0	0	512	505	0	454	39	14	
10	0	0	0	0	516	491	0	458	39	16	
11	0	0	0	0	516	479	0	462	39	16	
12	0	0	0	0	513	475	0	469	39	16	
13	0	0	0	0	506	480	0	472	39	14	
14	0	0	0	0	505	489	0	475	39	13	
15	0	0	0	0	503	499	0	476	38	12	
0	0	0	0	0	499	507	0	471	38	12	
1	0	0	0	0	500	514	0	468	38	14	
2	0	0	0	0	503	516	0	477	39	15	
3	0	0	0	0	506	515	0	502	39	16	
4	0	0	0	0	506	514	0	511	39	16	
5	0	0	0	0	505	515	0	527	39	15	
6	0	0	0	0	504	520	0	530	39	13	
7	0	0	0	0	507	522	0	529	39	12	
8	0	0	0	0	510	518	0	537	39	12	
9	0	0	0	0	514	511	0	532	39	14	
10	0	0	0	0	516	503	0	542	39	15	
11	0	0	0	0	521	491	0	542	39	16	
12	0	0	0	0	518	478	0	543	39	16	
13	0	0	0	0	511	477	0	554	39	15	
14	0	0	0	0	505	484	0	548	39	14	
15	0	0	0	0	501	494	0	572	39	12	
0	0	0	0	0	499	503	0	552	39	12	
1	0	0	0	0	500	510	0	547	39	13	
2	0	0	0	0	501	516	0	551	39	14	
3	0	0	0	0	506	519	0	544	39	16	
4	0	0	0	0	507	517	0	548	39	16	
5	0	0	0	0	505	516	0	546	39	16	
6	0	0	0	0	505	519	0	541	39	14	
7	0	0	0	0	504	524	0	540	38	13	
8	0	0	0	0	508	522	0	529	38	12	
9	0	0	0	0	509	516	0	530	39	13	
10	0	0	0	0	513	508	0	530	38	14	
11	0	0	0	0	518	496	0	528	39	15	
12	0	0	0	0	519	482	0	528	39	16	
13	0	0	0	0	515	474	0	527	39	16	
14	0	0	0	0	508	476	0	527	39	15	
15	0	0	0	0	506	485	0	533	39	13	
0	0	0	0	0	502	495	0	535	39	12	
1	0	0	0	0	501	504	0	528	39	12	
2	0	0	0	0	500	513	0	534	39	14	
3	0	0	0	0	504	517	0	527	39	15	
4	0	0	0	0	504	515	0	508	38	16	
5	0	0	0	0	505	513	0	492	38	16	
6	0	0	0	0	505	514	0	481	39	16	
7	0	0	0	0	505	516	0	473	38	14	
8	0	0	0	0	508	518	0	480	38	12	
9	0	0	0	0	508	517	0	486	39	12	
10	0	0	0	0	511	511	0	496	39	13	
11	0	0	0	0	515	504	0	515	39	15	
12	0	0	0	0	519	492	0	521	39	16	
13	0	0	0	0	519	479	0	526	39	16	
14	0	0	0	0	511	475	0	536	39	16	
15	0	0	0	0	506	480	0	545	39	15	
0	0	0	0	0	506	489	0	540	39	13	
1	0	0	0	0	502	501	0	534	38	12	
2	0	0	0	0	502	511	0	527	39	13	
3	0	0	0	0	502	517	0	521	39	14	
4	0	0	0	0	508	520	0	519	39	15	
5	0	0	0	0	508	517	0	508	39	16	
6	0	0	0	0	504	515	0	494	39	16	
7	0	0	0	0	504	516	0	480	39	15	
8	0	0	0	0	505	517	0	467	39	13	
9	0	0	0	0	505	519	0	454	39	12	
10	0	0	0	0	508	515	0	448	39	12	
11	0	0	0	0	512	510	0	445	39	14	
12	0	0	0	0	515	500	0	444	39	15	
13	0	0	0	0	522	487	0	452	39	16	
14	0	0	0	0	520	476	0	453	39	16	
15	0	0	0	0	511	474	0	456	39	16	
0	0	0	0	0	505	482	0	456	39	14	
1	0	0	0	0	500	493	0	453	39	12	
2	0	0	0	0	499	504	0	454	39	12	
3	0	0	0	0	500	515	0	455	39	13	
4	0	0	0	0	503	521	0	455	38	15	
5	0	0	0	0	504	522	0	457	39	16	
6	0	0	0	0	506	519	0	459	39	16	
7	0	0	0	0	505	518	0	452	38	16	
8	0	0	0	0	506	521	0	448	39	15	
9	0	0	0	0	505	524	0	443	39	13	
10	0	0	0	0	508	519	0	441	39	12	
11	0	0	0	0	509	515	0	442	39	13	
12	0	0	0	0	511	507	0	444	39	14	
13	0	0	0	0	519	495	0	460	39	15	
14	0	0	0	0	519	483	0	489	39	16	
15	0	0	0	0	515	474	0	502	39	16	
0	0	0	0	0	511	477	0	523	39	15	
1	0	0	0	0	505	487	0	531	39	13	
2	0	0	0	0	504	494	0	532	39	12	
3	0	0	0	0	502	504	0	546	39	12	
4	0	0	0	0	501	513	0	537	39	14	
5	0	0	0	0	503	516	0	542	38	15	
6	0	0	0	0	503	516	0	536	39	16	
7	0	0	0	0	504	513	0	529	39	16	
8	0	0	0	0	505	513	0	540	39	16	
9	0	0	0	0	503	518	0	530	39	14	
10	0	0	0	0	504	518	0	536	39	12	
11	0	0	0	0	510	514	0	532	39	12	
12	0	0	0	0	513	508	0	527	39	13	
13	0	0	0	0	512	501	0	525	39	15	
14	0	0	0	0	517	489	0	523	39	16	
15	0	0	0	0	519	477	0	524	38	16	
0	0	0	0	0	511	472	0	515	38	16	
1	0	0	0	0	509	479	0	506	39	15	
2	0	0	0	0	504	490	0	495	38	13	
3	0	0	0	0	502	500	0	487	39	12	
4	0	0	0	0	501	510	0	479	38	13	
5	0	0	0	0	500	518	0	472	39	14	
6	0	0	0	0	504	519	0	480	39	15	
7	0	0	0	0	507	518	0	493	39	16	
8	0	0	0	0	506	515	0	496	39	16	
9	0	0	0	0	504	516	0	512	39	15	
10	0	0	0	0	504	520	0	519	39	13	
11	0	0	0	0	509	521	0	522	39	12	
12	0	0	0	0	512	518	0	519	39	12	
13	0	0	0	0	513	511	0	515	39	14	
14	0	0	0	0	516	502	0	513	39	15	
15	0	0	0	0	521	488	0	506	39	16	
0	0	0	0	0	519	478	0	496	39	17	
1	0	0	0	0	510	477	0	489	39	16	
2	0	0	0	0	505	485	0	483	39	14	
3	0	0	0	0	503	495	0	478	39	12	
4	0	0	0	0	500	504	0	477	39	12	
5	0	0	0	0	499	514	0	472	39	13	
6	0	0	0	0	502	518	0	467	39	15	
7	0	0	0	0	506	519	0	464	39	16	
8	0	0	0	0	507	518	0	459	39	16	
9	0	0	0	0	506	518	0	455	39	16	
10	0	0	0	0	507	519	0	455	39	15	
11	0	0	0	0	504	520	0	456	39	13	
12	0	0	0	0	507	519	0	457	39	12	
13	0	0	0	0	510	513	0	461	39	13	
14	0	0	0	0	513	506	0	459	39	14	
15	0	0	0	0	517	494	0	460	39	15	
0	0	0	0	0	519	483	0	461	39	16	
1	0	0	0	0	515	476	0	463	39	16	
2	0	0	0	0	511	479	0	468	39	15	
3	0	0	0	0	505	487	0	472	39	13	
4	0	0	0	0	503	496	0	477	39	12	
5	0	0	0	0	499	505	0	480	39	12	
6	0	0	0	0	499	513	0	482	39	14	
7	0	0	0	0	504	517	0	480	39	15	
8	0	0	0	0	506	515	0	476	39	16	
9	0	0	0	0	506	513	0	473	39	17	
10	0	0	0	0	504	515	0	472	39	16	
11	0	0	0	0	505	517	0	473	39	14	
12	0	0	0	0	504	518	0	474	39	12	
13	0	0	0	0	507	514	0	479	39	12	
14	0	0	0	0	509	510	0	479	39	13	
15	0	0	0	0	515	502	0	479	39	15	
0	0	0	0	0	517	491	0	480	39	16	
1	0	0	0	0	519	479	0	478	39	17	
2	0	0	0	0	513	475	0	487	39	16	
3	0	0	0	0	507	481	0	487	39	15	
4	0	0	0	0	504	491	0	491	39	13	
5	0	0	0	0	500	501	0	495	38	12	
6	0	0	0	0	500	509	0	495	39	13	
7	0	0	0	0	503	517	0	490	39	14	
8	0	0	0	0	506	517	0	484	39	15	
9	0	0	0	0	507	515	0	476	39	16	
10	0	0	0	0	505	514	0	476	38	16	
11	0	0	0	0	505	516	0	478	39	15	
12	0	0	0	0	501	519	0	477	38	13	
13	0	0	0	0	503	520	0	477	39	12	
14	0	0	0	0	508	516	0	478	39	12	
15	0	0	0	0	513	509	0	478	39	14	
0	0	0	0	0	518	498	0	476	39	15	
1	0	0	0	0	520	487	0	479	39	16	
2	0	0	0	0	519	476	0	484	39	17	
3	0	0	0	0	511	477	0	490	39	16	
4	0	0	0	0	506	483	0	503	39	14	
5	0	0	0	0	502	492	0	525	39	12	
6	0	0	0	0	501	502	0	540	39	12	
7	0	0	0	0	499	510	0	548	39	13	
8	0	0	0	0	503	514	0	562	39	15	
9	0	0	0	0	505	515	0	562	39	16	
10	0	0	0	0	508	513	0	569	39	17	
11	0	0	0	0	505	512	0	572	39	16	
12	0	0	0	0	504	514	0	570	39	15	
13	0	0	0	0	504	518	0	575	39	13	
14	0	0	0	0	506	517	0	564	39	12	
15	0	0	0	0	510	513	0	539	39	13	
0	0	0	0	0	512	506	0	516	39	14	
1	0	0	0	0	516	498	0	501	39	15	
2	0	0	0	0	520	486	0	496	39	16	
3	0	0	0	0	515	476	0	498	39	16	
4	0	0	0	0	510	478	0	497	38	15	
5	0	0	0	0	503	487	0	498	39	13	
6	0	0	0	0	502	496	0	498	39	12	
7	0	0	0	0	500	506	0	494	39	12	
8	0	0	0	0	500	515	0	487	38	14	
9	0	0	0	0	503	519	0	479	38	15	
10	0	0	0	0	505	519	0	475	38	16	
11	0	0	0	0	507	514	0	476	39	17	
12	0	0	0	0	505	514	0	488	39	16	
13	0	0	0	0	504	517	0	516	39	14	
14	0	0	0	0	505	521	0	527	39	12	
15	0	0	0	0	508	517	0	524	39	12	
0	0	0	0	0	511	512	0	516	39	13	
1	0	0	0	0	517	505	0	517	39	15	
2	0	0	0	0	519	493	0	539	39	16	
3	0	0	0	0	519	480	0	550	39	17	
4	0	0	0	0	510	475	0	546	39	16	
5	0	0	0	0	505	481	0	538	39	15	
6	0	0	0	0	502	491	0	530	39	13	
7	0	0	0	0	501	500	0	515	39	12	
8	0	0	0	0	499	511	0	502	39	13	
9	0	0	0	0	503	515	0	493	39	14	
10	0	0	0	0	503	518	0	500	39	15	
11	0	0	0	0	507	517	0	528	39	16	
12	0	0	0	0	507	516	0	535	39	16	
13	0	0	0	0	505	517	0	553	39	15	
14	0	0	0	0	503	519	0	559	39	13	
15	0	0	0	0	505	521	0	560	39	12	
0	0	0	0	0	508	517	0	564	39	12	
1	0	0	0	0	514	510	0	555	39	14	
2	0	0	0	0	515	501	0	563	39	15	
3	0	0	0	0	518	488	0	567	39	16	
4	0	0	0	0	519	476	0	577	39	17	
5	0	0	0	0	509	474	0	584	39	16	
6	0	0	0	0	505	480	0	581	39	14	
7	0	0	0	0	503	491	0	583	39	12	
8	0	0	0	0	499	502	0	579	39	12	
9	0	0	0	0	501	512	0	571	39	13	
10	0	0	0	0	503	519	0	574	39	15	
11	0	0	0	0	505	520	0	563	39	16	
12	0	0	0	0	504	519	0	567	39	17	
13	0	0	0	0	503	517	0	569	39	16	
14	0	0	0	0	504	518	0	565	39	15	
15	0	0	0	0	503	522	0	568	39	13	
0	0	0	0	0	508	522	0	556	39	12	
1	0	0	0	0	510	517	0	558	39	13	
2	0	0	0	0	514	510	0	557	39	14	
3	0	0	0	0	518	498	0	554	39	15	
4	0	0	0	0	518	486	0	566	39	16	
5	0	0	0	0	515	477	0	563	38	17	
6	0	0	0	0	511	479	0	575	39	15	
7	0	0	0	0	505	487	0	575	39	14	
8	0	0	0	0	504	496	0	572	39	12	
9	0	0	0	0	502	507	0	575	39	12	
10	0	0	0	0	501	515	0	563	39	14	
11	0	0	0	0	504	518	0	566	38	15	
12	0	0	0	0	507	518	0	563	38	16	
13	0	0	0	0	509	515	0	559	38	17	
14	0	0	0	0	505	516	0	563	39	16	
15	0	0	0	0	505	520	0	551	39	14	
0	0	0	0	0	508	521	0	527	38	12	
1	0	0	0	0	509	516	0	507	38	12	
2	0	0	0	0	511	510	0	490	39	13	
3	0	0	0	0	513	502	0	488	39	15	
4	0	0	0	0	518	489	0	508	39	16	
5	0	0	0	0	519	478	0	516	39	17	
6	0	0	0	0	513	473	0	530	39	16	
7	0	0	0	0	505	478	0	545	39	15	
8	0	0	0	0	504	486	0	551	39	13	
9	0	0	0	0	499	498	0	545	39	12	
10	0	0	0	0	499	510	0	547	39	13	
11	0	0	0	0	498	518	0	549	39	14	
12	0	0	0	0	502	519	0	552	38	15	
13	0	0	0	0	505	517	0	550	38	16	
14	0	0	0	0	508	514	0	535	39	17	
15	0	0	0	0	506	516	0	536	38	15	
0	0	0	0	0	503	520	0	524	39	14	
1	0	0	0	0	506	520	0	522	39	12	
2	0	0	0	0	510	518	0	529	39	12	
3	0	0	0	0	513	513	0	526	39	14	
4	0	0	0	0	514	503	0	535	39	15	
5	0	0	0	0	519	490	0	539	39	16	
6	0	0	0	0	517	478	0	544	39	17	
7	0	0	0	0	510	478	0	555	39	16	
8	0	0	0	0	504	486	0	552	39	14	
9	0	0	0	0	504	495	0	558	38	12	
10	0	0	0	0	502	505	0	556	38	12	
11	0	0	0	0	501	514	0	552	38	13	
12	0	0	0	0	503	519	0	556	39	15	
13	0	0	0	0	505	519	0	544	39	16	
14	0	0	0	0	505	516	0	546	39	17	
15	0	0	0	0	505	515	0	538	38	16	
0	0	0	0	0	505	517	0	532	39	15	
1	0	0	0	0	507	517	0	535	38	13	
2	0	0	0	0	508	516	0	526	39	12	
3	0	0	0	0	511	512	0	519	39	13	
4	0	0	0	0	514	505	0	516	39	14	
5	0	0	0	0	518	494	0	516	39	15	
6	0	0	0	0	522	482	0	509	39	16	
7	0	0	0	0	516	475	0	499	39	17	
8	0	0	0	0	510	478	0	489	39	15	
9	0	0	0	0	505	487	0	480	39	14	
10	0	0	0	0	501	496	0	475	39	12	
11	0	0	0	0	499	506	0	465	39	12	
12	0	0	0	0	499	515	0	459	39	14	
13	0	0	0	0	503	518	0	454	39	15	
14	0	0	0	0	506	519	0	449	39	16	
15	0	0	0	0	508	516	0	449	39	17	
0	0	0	0	0	504	516	0	442	38	16	
1	0	0	0	0	504	518	0	439	39	14	
2	0	0	0	0	505	520	0	437	39	12	
3	0	0	0	0	509	518	0	439	38	12	
4	0	0	0	0	511	511	0	442	38	13	
5	0	0	0	0	515	505	0	445	38	15	
6	0	0	0	0	518	494	0	451	39	16	
7	0	0	0	0	520	481	0	454	38	17	
8	0	0	0	0	511	479	0	458	38	16	
9	0	0	0	0	510	484	0	463	39	15	
10	0	0	0	0	507	492	0	464	38	13	
11	0	0	0	0	502	504	0	468	39	12	
12	0	0	0	0	501	512	0	468	39	13	
13	0	0	0	0	500	517	0	467	39	14	
14	0	0	0	0	502	518	0	478	39	15	
15	0	0	0	0	505	516	0	498	39	16	
0	0	0	0	0	506	513	0	502	39	17	
1	0	0	0	0	503	517	0	518	39	15	
2	0	0	0	0	505	520	0	524	39	14	
3	0	0	0	0	508	520	0	530	39	12	
4	0	0	0	0	510	518	0	540	39	12	
5	0	0	0	0	511	512	0	536	39	14	
6	0	0	0	0	515	503	0	544	39	15	
7	0	0	0	0	518	491	0	544	39	16	
8	0	0	0	0	517	480	0	545	39	17	
9	0	0	0	0	511	480	0	555	39	16	
10	0	0	0	0	505	486	0	550	39	14	
11	0	0	0	0	504	494	0	557	39	12	
12	0	0	0	0	504	502	0	553	39	12	
13	0	0	0	0	499	511	0	546	39	13	
14	0	0	0	0	504	516	0	533	39	15	
15	0	0	0	0	505	518	0	524	39	16	
0	0	0	0	0	509	514	0	517	39	17	
1	0	0	0	0	508	512	0	501	39	16	
2	0	0	0	0	506	514	0	487	39	15	
3	0	0	0	0	505	518	0	486	39	13	
4	0	0	0	0	506	519	0	467	39	12	
5	0	0	0	0	509	514	0	458	39	13	
6	0	0	0	0	510	507	0	454	39	14	
7	0	0	0	0	512	496	0	462	39	15	
8	0	0	0	0	517	484	0	487	39	16	
9	0	0	0	0	515	478	0	495	38	17	
10	0	0	0	0	509	481	0	517	38	15	
11	0	0	0	0	505	489	0	528	39	14	
12	0	0	0	0	504	498	0	534	39	12	
13	0	0	0	0	500	506	0	534	38	12	
14	0	0	0	0	501	514	0	528	39	14	
15	0	0	0	0	502	518	0	523	39	15	
0	0	0	0	0	504	518	0	508	39	16	
1	0	0	0	0	508	517	0	494	38	17	
2	0	0	0	0	505	519	0	486	39	16	
3	0	0	0	0	505	519	0	476	39	14	
4	0	0	0	0	505	522	0	465	39	12	
5	0	0	0	0	506	519	0	460	39	12	
6	0	0	0	0	512	513	0	457	39	13	
7	0	0	0	0	517	503	0	460	39	15	
8	0	0	0	0	518	492	0	462	39	16	
9	0	0	0	0	519	479	0	463	38	17	
10	0	0	0	0	512	474	0	465	38	16	
11	0	0	0	0	510	479	0	472	39	15	
12	0	0	0	0	503	489	0	476	39	13	
13	0	0	0	0	498	500	0	477	39	12	
14	0	0	0	0	496	508	0	475	39	13	
15	0	0	0	0	500	516	0	471	39	14	
0	0	0	0	0	503	519	0	474	39	15	
1	0	0	0	0	505	517	0	493	39	16	
2	0	0	0	0	506	517	0	499	39	17	
3	0	0	0	0	506	518	0	520	39	15	
4	0	0	0	0	504	520	0	531	39	14	
5	0	0	0	0	507	520	0	535	38	12	
6	0	0	0	0	511	517	0	549	39	12	
7	0	0	0	0	511	510	0	539	39	14	
8	0	0	0	0	518	501	0	545	39	15	
9	0	0	0	0	518	488	0	545	39	16	
10	0	0	0	0	519	476	0	544	39	17	
11	0	0	0	0	511	473	0	545	39	16	
12	0	0	0	0	507	481	0	542	39	14	
13	0	0	0	0	504	491	0	539	39	12	
14	0	0	0	0	501	500	0	526	39	12	
15	0	0	0	0	499	511	0	511	39	13	
0	0	0	0	0	500	516	0	502	39	15	
1	0	0	0	0	505	517	0	487	39	16	
2	0	0	0	0	509	515	0	480	39	17	
3	0	0	0	0	507	513	0	475	39	16	
4	0	0	0	0	508	516	0	472	39	15	
5	0	0	0	0	504	520	0	470	39	13	
6	0	0	0	0	507	518	0	466	39	12	
7	0	0	0	0	512	514	0	464	38	13	
8	0	0	0	0	514	509	0	464	38	14	
9	0	0	0	0	516	500	0	467	38	16	
10	0	0	0	0	521	487	0	476	38	16	
11	0	0	0	0	516	476	0	508	39	17	
12	0	0	0	0	508	479	0	524	39	15	
13	0	0	0	0	504	488	0	540	39	14	
14	0	0	0	0	498	500	0	554	39	12	
15	0	0	0	0	497	508	0	548	39	12	
0	0	0	0	0	498	518	0	555	39	14	
1	0	0	0	0	504	522	0	550	39	15	
2	0	0	0	0	506	522	0	543	39	16	
3	0	0	0	0	507	518	0	540	39	17	
4	0	0	0	0	504	517	0	535	39	16	
5	0	0	0	0	504	519	0	530	39	14	
6	0	0	0	0	505	522	0	526	39	13	
7	0	0	0	0	507	519	0	512	39	12	
8	0	0	0	0	511	515	0	499	39	13	
9	0	0	0	0	517	507	0	488	39	15	
10	0	0	0	0	521	495	0	483	39	16	
11	0	0	0	0	522	481	0	480	39	17	
12	0	0	0	0	516	475	0	479	39	16	
13	0	0	0	0	509	480	0	482	39	15	
14	0	0	0	0	506	492	0	479	39	13	
15	0	0	0	0	502	502	0	477	39	12	
0	0	0	0	0	501	511	0	468	38	13	
1	0	0	0	0	500	519	0	461	38	14	
2	0	0	0	0	505	520	0	470	38	15	
3	0	0	0	0	506	518	0	491	38	16	
4	0	0	0	0	507	517	0	501	38	17	
5	0	0	0	0	504	517	0	518	38	15	
6	0	0	0	0	504	519	0	520	39	14	
7	0	0	0	0	508	519	0	525	39	12	
8	0	0	0	0	510	516	0	532	39	12	
9	0	0	0	0	508	508	0	527	39	14	
10	0	0	0	0	513	499	0	535	39	15	
11	0	0	0	0	519	486	0	538	39	16	
12	0	0	0	0	519	476	0	540	39	17	
13	0	0	0	0	507	475	0	536	39	16	
14	0	0	0	0	503	483	0	551	39	14	
15	0	0	0	0	501	493	0	548	39	12	
0	0	0	0	0	499	504	0	540	39	12	
1	0	0	0	0	499	512	0	536	39	13	
2	0	0	0	0	503	518	0	528	39	15	
3	0	0	0	0	504	518	0	523	39	16	
4	0	0	0	0	506	513	0	519	39	17	
5	0	0	0	0	505	513	0	505	39	16	
6	0	0	0	0	505	514	0	493	39	15	
7	0	0	0	0	503	517	0	481	39	13	
8	0	0	0	0	508	516	0	472	39	12	
9	0	0	0	0	511	511	0	464	38	13	
10	0	0	0	0	511	504	0	459	39	14	
11	0	0	0	0	520	493	0	468	39	16	
12	0	0	0	0	520	482	0	481	39	16	
13	0	0	0	0	515	475	0	483	38	17	
14	0	0	0	0	509	478	0	483	39	15	
15	0	0	0	0	504	486	0	482	38	14	
0	0	0	0	0	502	495	0	480	39	12	
1	0	0	0	0	502	505	0	472	39	12	
2	0	0	0	0	501	513	0	473	39	14	
3	0	0	0	0	503	517	0	467	38	15	
4	0	0	0	0	505	518	0	466	39	16	
5	0	0	0	0	506	516	0	465	39	17	
6	0	0	0	0	503	517	0	464	39	16	
7	0	0	0	0	502	520	0	467	39	14	
8	0	0	0	0	503	521	0	460	39	13	
9	0	0	0	0	507	519	0	458	38	12	
10	0	0	0	0	512	514	0	458	39	13	
11	0	0	0	0	514	503	0	459	39	15	
12	0	0	0	0	519	491	0	463	39	16	
13	0	0	0	0	518	477	0	471	39	17	
14	0	0	0	0	512	472	0	472	39	16	
15	0	0	0	0	508	477	0	473	39	15	
0	0	0	0	0	502	485	0	471	39	13	
1	0	0	0	0	500	496	0	469	39	12	
2	0	0	0	0	499	506	0	468	38	13	
3	0	0	0	0	500	513	0	464	39	14	
4	0	0	0	0	506	515	0	474	39	16	
5	0	0	0	0	510	515	0	498	39	16	
6	0	0	0	0	510	514	0	507	39	17	
7	0	0	0	0	504	516	0	526	39	15	
8	0	0	0	0	503	519	0	527	39	14	
9	0	0	0	0	506	520	0	527	39	12	
10	0	0	0	0	509	517	0	537	39	12	
11	0	0	0	0	511	510	0	532	39	14	
12	0	0	0	0	516	502	0	542	38	15	
13	0	0	0	0	519	489	0	543	39	16	
14	0	0	0	0	518	479	0	543	39	17	
15	0	0	0	0	511	478	0	550	39	16	
0	0	0	0	0	506	484	0	540	39	14	
1	0	0	0	0	502	493	0	545	38	13	
2	0	0	0	0	502	503	0	543	39	12	
3	0	0	0	0	500	512	0	540	39	13	
4	0	0	0	0	503	517	0	546	39	15	
5	0	0	0	0	505	518	0	537	39	16	
6	0	0	0	0	509	517	0	543	39	17	
7	0	0	0	0	505	518	0	533	38	16	
8	0	0	0	0	505	519	0	525	39	15	
9	0	0	0	0	504	520	0	529	39	13	
10	0	0	0	0	505	518	0	522	39	12	
11	0	0	0	0	509	512	0	530	39	13	
12	0	0	0	0	512	507	0	528	39	14	
13	0	0	0	0	517	495	0	529	39	16	
14	0	0	0	0	519	483	0	541	39	16	
15	0	0	0	0	515	476	0	539	39	17	
0	0	0	0	0	509	480	0	547	39	15	
1	0	0	0	0	505	487	0	542	39	14	
2	0	0	0	0	503	496	0	539	39	12	
3	0	0	0	0	502	505	0	546	39	12	
4	0	0	0	0	498	513	0	537	39	14	
5	0	0	0	0	503	518	0	518	39	15	
6	0	0	0	0	504	518	0	518	39	16	
7	0	0	0	0	506	515	0	520	39	17	
8	0	0	0	0	503	513	0	515	39	16	
9	0	0	0	0	504	517	0	525	39	14	
10	0	0	0	0	504	519	0	522	39	13	
11	0	0	0	0	509	515	0	508	39	12	
12	0	0	0	0	512	512	0	492	39	13	
13	0	0	0	0	516	504	0	480	39	15	
14	0	0	0	0	521	494	0	474	39	16	
15	0	0	0	0	520	481	0	465	39	17	
0	0	0	0	0	513	475	0	466	39	16	
1	0	0	0	0	506	479	0	459	39	15	
2	0	0	0	0	504	488	0	459	39	13	
3	0	0	0	0	500	499	0	460	39	12	
4	0	0	0	0	503	508	0	462	39	13	
5	0	0	0	0	501	515	0	475	38	14	
6	0	0	0	0	504	519	0	494	39	16	
7	0	0	0	0	505	516	0	492	39	16	
8	0	0	0	0	507	513	0	485	38	17	
9	0	0	0	0	505	515	0	496	38	15	
10	0	0	0	0	507	517	0	504	38	14	
11	0	0	0	0	508	517	0	499	39	12	
12	0	0	0	0	512	514	0	487	39	12	
13	0	0	0	0	512	508	0	494	39	14	
14	0	0	0	0	513	500	0	495	39	15	
15	0	0	0	0	518	487	0	507	39	16	
0	0	0	0	0	518	476	0	505	39	17	
1	0	0	0	0	511	476	0	500	39	16	
2	0	0	0	0	504	482	0	492	38	14	
3	0	0	0	0	502	494	0	485	39	13	
4	0	0	0	0	500	503	0	477	39	12	
5	0	0	0	0	499	513	0	482	39	13	
6	0	0	0	0	501	518	0	504	39	15	
7	0	0	0	0	505	519	0	503	39	16	
8	0	0	0	0	507	516	0	492	39	17	
9	0	0	0	0	505	515	0	480	39	16	
10	0	0	0	0	505	516	0	470	39	15	
11	0	0	0	0	505	519	0	461	39	13	
12	0	0	0	0	509	519	0	458	39	12	
13	0	0	0	0	510	514	0	478	39	13	
14	0	0	0	0	512	507	0	491	39	14	
15	0	0	0	0	516	496	0	491	39	16	
0	0	0	0	0	517	483	0	487	39	16	
1	0	0	0	0	515	475	0	478	39	17	
2	0	0	0	0	509	478	0	473	39	15	
3	0	0	0	0	501	484	0	491	39	14	
4	0	0	0	0	499	494	0	513	39	12	
5	0	0	0	0	501	503	0	517	39	12	
6	0	0	0	0	502	511	0	507	39	14	
7	0	0	0	0	504	515	0	495	39	15	
8	0	0	0	0	506	515	0	484	39	16	
9	0	0	0	0	507	512	0	487	39	17	
10	0	0	0	0	506	512	0	509	38	16	
11	0	0	0	0	505	513	0	507	38	14	
12	0	0	0	0	506	516	0	498	38	13	
13	0	0	0	0	507	514	0	488	38	12	
14	0	0	0	0	510	510	0	479	39	13	
15	0	0	0	0	517	503	0	472	39	15	
0	0	0	0	0	518	492	0	466	39	16	
1	0	0	0	0	519	481	0	461	38	17	
2	0	0	0	0	512	476	0	463	39	16	
3	0	0	0	0	508	480	0	471	39	15	
4	0	0	0	0	506	487	0	480	39	13	
5	0	0	0	0	502	496	0	509	39	12	
6	0	0	0	0	498	508	0	522	39	13	
7	0	0	0	0	499	516	0	534	39	14	
8	0	0	0	0	501	518	0	546	39	15	
9	0	0	0	0	505	515	0	534	39	16	
10	0	0	0	0	506	513	0	518	39	17	
11	0	0	0	0	507	515	0	502	39	15	
12	0	0	0	0	504	518	0	490	39	14	
13	0	0	0	0	508	520	0	496	39	12	
14	0	0	0	0	511	517	0	511	39	12	
15	0	0	0	0	511	510	0	515	39	14	
0	0	0	0	0	515	500	0	531	39	15	
1	0	0	0	0	519	487	0	541	39	16	
2	0	0	0	0	520	476	0	547	39	17	
3	0	0	0	0	510	475	0	547	39	16	
4	0	0	0	0	505	484	0	547	39	14	
5	0	0	0	0	504	492	0	543	39	13	
6	0	0	0	0	501	503	0	530	39	12	
7	0	0	0	0	500	512	0	514	39	13	
8	0	0	0	0	503	518	0	499	39	15	
9	0	0	0	0	503	517	0	485	39	16	
10	0	0	0	0	507	513	0	477	39	17	
11	0	0	0	0	506	513	0	471	39	16	
12	0	0	0	0	507	516	0	468	39	15	
13	0	0	0	0	505	519	0	464	38	13	
14	0	0	0	0	508	519	0	463	39	12	
15	0	0	0	0	509	514	0	459	39	13	
0	0	0	0	0	514	507	0	456	39	14	
1	0	0	0	0	516	496	0	470	39	15	
2	0	0	0	0	521	483	0	498	39	16	
3	0	0	0	0	516	474	0	513	39	17	
4	0	0	0	0	509	476	0	538	39	15	
5	0	0	0	0	505	485	0	549	39	14	
6	0	0	0	0	504	494	0	556	39	12	
7	0	0	0	0	500	503	0	566	39	12	
8	0	0	0	0	499	513	0	558	39	14	
9	0	0	0	0	498	517	0	560	39	15	
10	0	0	0	0	504	516	0	557	39	16	
11	0	0	0	0	507	514	0	558	39	17	
12	0	0	0	0	506	513	0	562	39	16	
13	0	0	0	0	506	516	0	554	39	14	
14	0	0	0	0	504	519	0	545	39	13	
15	0	0	0	0	508	518	0	544	39	12	
0	0	0	0	0	511	512	0	549	39	13	
1	0	0	0	0	515	503	0	539	39	15	
2	0	0	0	0	518	491	0	536	39	16	
3	0	0	0	0	521	479	0	535	39	17	
4	0	0	0	0	511	475	0	538	39	16	
5	0	0	0	0	507	478	0	532	39	15	
6	0	0	0	0	505	487	0	537	39	13	
7	0	0	0	0	500	496	0	511	39	12	
8	0	0	0	0	501	504	0	501	39	13	
9	0	0	0	0	500	513	0	492	39	14	
10	0	0	0	0	504	517	0	499	39	15	
11	0	0	0	0	508	516	0	518	39	16	
12	0	0	0	0	508	513	0	525	38	17	
13	0	0	0	0	506	515	0	541	39	15	
14	0	0	0	0	505	518	0	542	39	14	
15	0	0	0	0	507	519	0	537	39	12	
0	0	0	0	0	508	515	0	532	39	12	
1	0	0	0	0	510	510	0	529	39	14	
2	0	0	0	0	516	499	0	527	39	15	
3	0	0	0	0	519	487	0	529	39	16	
4	0	0	0	0	519	476	0	527	39	17	
5	0	0	0	0	510	476	0	517	39	16	
6	0	0	0	0	506	484	0	507	39	14	
7	0	0	0	0	502	494	0	498	39	13	
8	0	0	0	0	502	503	0	491	38	12	
9	0	0	0	0	499	513	0	487	39	13	
10	0	0	0	0	503	518	0	478	39	15	
11	0	0	0	0	504	519	0	475	39	16	
12	0	0	0	0	508	515	0	471	39	17	
13	0	0	0	0	506	514	0	468	39	16	
14	0	0	0	0	502	517	0	472	39	15	
15	0	0	0	0	502	520	0	466	39	13	
0	0	0	0	0	508	518	0	462	39	12	
1	0	0	0	0	511	515	0	455	39	13	
2	0	0	0	0	510	509	0	454	39	14	
3	0	0	0	0	518	497	0	471	39	15	
4	0	0	0	0	519	485	0	503	39	16	
5	0	0	0	0	514	477	0	519	39	17	
6	0	0	0	0	508	480	0	542	39	15	
7	0	0	0	0	505	487	0	548	39	14	
8	0	0	0	0	504	497	0	552	39	12	
9	0	0	0	0	502	506	0	558	39	12	
10	0	0	0	0	500	514	0	551	39	14	
11	0	0	0	0	504	519	0	555	39	15	
12	0	0	0	0	505	519	0	555	38	16	
13	0	0	0	0	509	517	0	552	39	17	
14	0	0	0	0	505	517	0	557	39	16	
15	0	0	0	0	506	520	0	546	39	14	
0	0	0	0	0	507	523	0	545	39	13	
1	0	0	0	0	509	523	0	539	38	12	
2	0	0	0	0	513	515	0	537	39	13	
3	0	0	0	0	517	505	0	547	39	15	
4	0	0	0	0	516	492	0	545	39	16	
5	0	0	0	0	519	480	0	557	39	17	
6	0	0	0	0	511	475	0	559	39	16	
7	0	0	0	0	508	480	0	559	39	15	
8	0	0	0	0	503	489	0	561	39	13	
9	0	0	0	0	502	498	0	549	39	12	
10	0	0	0	0	503	507	0	553	39	13	
11	0	0	0	0	502	514	0	551	39	14	
12	0	0	0	0	504	517	0	546	39	15	
13	0	0	0	0	505	518	0	557	39	16	
14	0	0	0	0	505	518	0	542	39	17	
15	0	0	0	0	507	520	0	542	39	15	
0	0	0	0	0	502	524	0	534	39	14	
1	0	0	0	0	504	523	0	516	39	12	
2	0	0	0	0	505	519	0	497	39	12	
3	0	0	0	0	511	510	0	483	39	14	
4	0	0	0	0	515	502	0	473	39	15	
5	0	0	0	0	519	491	0	485	38	16	
6	0	0	0	0	520	479	0	505	39	17	
7	0	0	0	0	512	477	0	527	39	16	
8	0	0	0	0	506	484	0	531	39	14	
9	0	0	0	0	503	494	0	533	39	13	
10	0	0	0	0	501	502	0	538	39	12	
11	0	0	0	0	501	511	0	545	38	13	
12	0	0	0	0	502	518	0	544	38	15	
13	0	0	0	0	504	520	0	546	39	16	
14	0	0	0	0	507	518	0	540	39	17	
15	0	0	0	0	504	517	0	538	39	16	
0	0	0	0	0	503	518	0	539	39	15	
1	0	0	0	0	504	519	0	537	39	13	
2	0	0	0	0	507	517	0	532	39	12	
3	0	0	0	0	512	512	0	527	39	13	
4	0	0	0	0	513	506	0	527	39	14	
5	0	0	0	0	517	496	0	532	39	16	
6	0	0	0	0	520	482	0	531	39	16	
7	0	0	0	0	515	473	0	540	39	17	
8	0	0	0	0	508	475	0	536	39	15	
9	0	0	0	0	504	483	0	530	39	14	
10	0	0	0	0	503	491	0	525	39	12	
11	0	0	0	0	500	502	0	520	39	12	
12	0	0	0	0	501	512	0	510	39	14	
13	0	0	0	0	504	516	0	493	39	15	
14	0	0	0	0	506	514	0	476	39	16	
15	0	0	0	0	508	512	0	463	39	17	
0	0	0	0	0	507	512	0	455	38	16	
1	0	0	0	0	508	513	0	448	38	14	
2	0	0	0	0	506	516	0	441	38	13	
3	0	0	0	0	510	513	0	439	38	12	
4	0	0	0	0	510	510	0	436	38	13	
5	0	0	0	0	515	503	0	444	39	15	
6	0	0	0	0	517	490	0	442	39	16	
7	0	0	0	0	518	477	0	444	39	17	
8	0	0	0	0	513	473	0	444	38	16	
9	0	0	0	0	506	478	0	443	38	15	
10	0	0	0	0	504	488	0	448	39	13	
11	0	0	0	0	501	496	0	450	39	12	
12	0	0	0	0	500	505	0	451	39	13	
13	0	0	0	0	501	514	0	451	38	14	
14	0	0	0	0	506	516	0	462	39	15	
15	0	0	0	0	507	513	0	484	39	16	
0	0	0	0	0	506	511	0	486	39	17	
1	0	0	0	0	506	513	0	503	39	15	
2	0	0	0	0	503	516	0	508	39	14	
3	0	0	0	0	510	517	0	512	39	12	
4	0	0	0	0	510	515	0	527	39	12	
5	0	0	0	0	512	508	0	523	39	14	
6	0	0	0	0	515	498	0	530	39	15	
7	0	0	0	0	515	485	0	530	39	16	
8	0	0	0	0	516	472	0	529	39	17	
9	0	0	0	0	510	471	0	542	39	16	
10	0	0	0	0	508	479	0	536	39	14	
11	0	0	0	0	505	489	0	545	39	13	
12	0	0	0	0	502	500	0	544	39	12	
13	0	0	0	0	502	508	0	527	39	13	
14	0	0	0	0	502	514	0	510	39	15	
15	0	0	0	0	503	514	0	492	39	16	
0	0	0	0	0	506	513	0	478	39	17	
1	0	0	0	0	505	513	0	468	38	16	
2	0	0	0	0	504	515	0	462	39	15	
3	0	0	0	0	503	520	0	460	39	13	
4	0	0	0	0	507	519	0	455	38	12	
5	0	0	0	0	512	515	0	452	38	13	
6	0	0	0	0	511	507	0	451	39	14	
7	0	0	0	0	518	496	0	451	39	16	
8	0	0	0	0	518	482	0	459	39	16	
9	0	0	0	0	515	472	0	483	39	17	
10	0	0	0	0	509	477	0	499	39	15	
11	0	0	0	0	505	486	0	517	39	14	
12	0	0	0	0	503	496	0	532	39	12	
13	0	0	0	0	502	504	0	536	39	12	
14	0	0	0	0	499	515	0	547	39	14	
15	0	0	0	0	503	518	0	540	39	15	
0	0	0	0	0	504	516	0	536	39	16	
1	0	0	0	0	507	513	0	535	39	17	
2	0	0	0	0	506	513	0	527	39	16	
3	0	0	0	0	504	516	0	544	39	14	
4	0	0	0	0	508	519	0	533	39	13	
5	0	0	0	0	508	516	0	527	39	12	
6	0	0	0	0	511	510	0	528	39	13	
7	0	0	0	0	515	502	0	542	39	15	
8	0	0	0	0	519	492	0	542	39	16	
9	0	0	0	0	520	480	0	540	39	17	
10	0	0	0	0	514	475	0	539	38	16	
11	0	0	0	0	508	481	0	539	39	15	
12	0	0	0	0	503	491	0	531	38	13	
13	0	0	0	0	502	501	0	520	39	12	
14	0	0	0	0	496	509	0	504	39	13	
15	0	0	0	0	501	516	0	491	39	14	
0	0	0	0	0	504	519	0	487	39	15	
1	0	0	0	0	507	516	0	486	39	16	
2	0	0	0	0	505	515	0	482	39	17	
3	0	0	0	0	504	515	0	475	38	15	
4	0	0	0	0	504	519	0	469	39	14	
5	0	0	0	0	506	522	0	465	39	12	
6	0	0	0	0	509	520	0	461	39	12	
7	0	0	0	0	513	514	0	458	39	14	
8	0	0	0	0	519	502	0	454	39	15	
9	0	0	0	0	518	489	0	455	39	16	
10	0	0	0	0	517	476	0	460	39	17	
11	0	0	0	0	510	476	0	464	39	16	
12	0	0	0	0	504	483	0	473	39	14	
13	0	0	0	0	502	492	0	473	39	13	
14	0	0	0	0	502	501	0	471	39	12	
15	0	0	0	0	501	510	0	468	39	13	
0	0	0	0	0	503	516	0	461	39	15	
1	0	0	0	0	506	518	0	459	39	16	
2	0	0	0	0	507	517	0	453	39	17	
3	0	0	0	0	505	516	0	455	38	16	
4	0	0	0	0	504	520	0	457	39	15	
5	0	0	0	0	505	522	0	457	39	13	
6	0	0	0	0	508	520	0	459	39	12	
7	0	0	0	0	510	516	0	455	39	13	
8	0	0	0	0	514	510	0	453	38	14	
9	0	0	0	0	518	499	0	463	39	15	
10	0	0	0	0	519	486	0	492	39	16	
11	0	0	0	0	515	476	0	508	39	17	
12	0	0	0	0	508	478	0	532	39	16	
13	0	0	0	0	501	487	0	545	39	14	
14	0	0	0	0	505	498	0	549	39	12	
15	0	0	0	0	500	508	0	556	39	12	
0	0	0	0	0	500	515	0	546	38	14	
1	0	0	0	0	503	520	0	546	38	15	
2	0	0	0	0	507	520	0	544	39	16	
3	0	0	0	0	510	516	0	541	39	17	
4	0	0	0	0	506	515	0	547	38	16	
5	0	0	0	0	503	517	0	542	39	14	
6	0	0	0	0	505	519	0	545	39	13	
7	0	0	0	0	508	516	0	544	38	12	
8	0	0	0	0	511	512	0	539	39	13	
9	0	0	0	0	515	504	0	545	38	15	
10	0	0	0	0	517	492	0	539	39	16	
11	0	0	0	0	519	480	0	523	39	17	
12	0	0	0	0	514	474	0	509	39	16	
13	0	0	0	0	507	480	0	501	39	15	
14	0	0	0	0	504	490	0	493	39	13	
15	0	0	0	0	502	498	0	488	39	12	
0	0	0	0	0	499	507	0	476	39	13	
1	0	0	0	0	502	515	0	466	39	14	
2	0	0	0	0	505	518	0	463	38	15	
3	0	0	0	0	507	516	0	461	39	16	
4	0	0	0	0	508	515	0	464	39	17	
5	0	0	0	0	505	519	0	463	38	15	
6	0	0	0	0	503	521	0	462	39	14	
7	0	0	0	0	508	519	0	460	39	12	
8	0	0	0	0	509	517	0	458	39	12	
9	0	0	0	0	509	511	0	454	39	14	
10	0	0	0	0	514	502	0	471	39	15	
11	0	0	0	0	517	491	0	460	39	16	
12	0	0	0	0	517	480	0	466	39	17	
13	0	0	0	0	511	477	0	472	39	16	
14	0	0	0	0	504	483	0	477	39	14	
15	0	0	0	0	501	493	0	477	39	13	
0	0	0	0	0	501	502	0	472	39	12	
1	0	0	0	0	500	510	0	480	39	13	
2	0	0	0	0	502	517	0	502	39	15	
3	0	0	0	0	503	519	0	510	39	16	
4	0	0	0	0	506	516	0	530	39	17	
5	0	0	0	0	507	516	0	536	39	16	
6	0	0	0	0	505	517	0	540	39	15	
7	0	0	0	0	505	521	0	551	39	13	
8	0	0	0	0	506	520	0	544	39	12	
9	0	0	0	0	510	515	0	552	39	13	
10	0	0	0	0	515	509	0	551	39	14	
11	0	0	0	0	519	500	0	546	39	15	
12	0	0	0	0	520	486	0	543	39	16	
13	0	0	0	0	516	475	0	540	38	17	
14	0	0	0	0	510	479	0	539	39	15	
15	0	0	0	0	504	487	0	526	39	14	
0	0	0	0	0	499	497	0	509	39	12	
1	0	0	0	0	502	509	0	492	38	12	
2	0	0	0	0	502	516	0	479	39	14	
3	0	0	0	0	504	519	0	473	39	15	
4	0	0	0	0	505	518	0	466	39	16	
5	0	0	0	0	504	515	0	465	39	17	
6	0	0	0	0	501	515	0	463	39	16	
7	0	0	0	0	502	518	0	463	39	14	
8	0	0	0	0	505	519	0	457	39	13	
9	0	0	0	0	510	518	0	454	39	12	
10	0	0	0	0	512	513	0	455	39	13	
11	0	0	0	0	516	506	0	458	39	15	
12	0	0	0	0	519	496	0	463	39	16	
13	0	0	0	0	522	483	0	471	39	17	
14	0	0	0	0	513	478	0	475	39	16	
15	0	0	0	0	508	483	0	478	39	15	
0	0	0	0	0	502	492	0	479	38	13	
1	0	0	0	0	503	503	0	478	38	12	
2	0	0	0	0	502	511	0	476	39	13	
3	0	0	0	0	502	515	0	480	38	14	
4	0	0	0	0	506	517	0	476	39	15	
5	0	0	0	0	508	519	0	479	38	16	
6	0	0	0	0	507	515	0	480	39	17	
7	0	0	0	0	507	516	0	478	39	16	
8	0	0	0	0	504	518	0	477	38	14	
9	0	0	0	0	507	520	0	476	39	12	
10	0	0	0	0	509	516	0	472	39	12	
11	0	0	0	0	511	511	0	473	39	14	
12	0	0	0	0	514	501	0	476	39	15	
13	0	0	0	0	519	489	0	481	39	16	
14	0	0	0	0	519	477	0	487	39	17	
15	0	0	0	0	510	475	0	505	39	16	
0	0	0	0	0	506	481	0	491	39	14	
1	0	0	0	0	501	492	0	489	39	13	
2	0	0	0	0	500	500	0	487	39	12	
3	0	0	0	0	500	510	0	486	39	13	
4	0	0	0	0	501	514	0	489	39	15	
5	0	0	0	0	503	514	0	487	39	16	
6	0	0	0	0	508	514	0	487	39	17	
7	0	0	0	0	505	514	0	483	38	16	
8	0	0	0	0	506	518	0	479	39	15	
9	0	0	0	0	504	520	0	474	39	13	
10	0	0	0	0	509	519	0	489	39	12	
11	0	0	0	0	512	515	0	475	39	13	
12	0	0	0	0	513	509	0	476	39	14	
13	0	0	0	0	516	496	0	480	39	15	
14	0	0	0	0	517	483	0	485	39	16	
15	0	0	0	0	516	474	0	499	39	17	
0	0	0	0	0	509	477	0	487	38	16	
1	0	0	0	0	503	485	0	488	39	14	
2	0	0	0	0	502	494	0	489	39	12	
3	0	0	0	0	499	503	0	495	38	12	
4	0	0	0	0	500	512	0	523	39	14	
5	0	0	0	0	504	517	0	526	39	15	
6	0	0	0	0	506	517	0	517	39	16	
7	0	0	0	0	507	516	0	504	39	17	
8	0	0	0	0	504	515	0	491	39	16	
9	0	0	0	0	502	519	0	481	39	14	
10	0	0	0	0	507	523	0	475	39	13	
11	0	0	0	0	508	520	0	471	38	12	
12	0	0	0	0	512	514	0	472	39	13	
13	0	0	0	0	514	506	0	476	38	15	
14	0	0	0	0	517	494	0	482	39	16	
15	0	0	0	0	520	481	0	512	38	17	
0	0	0	0	0	513	475	0	536	39	16	
1	0	0	0	0	507	477	0	540	39	15	
2	0	0	0	0	502	487	0	537	39	13	
3	0	0	0	0	501	495	0	526	39	12	
4	0	0	0	0	501	505	0	517	39	13	
5	0	0	0	0	502	513	0	524	39	14	
6	0	0	0	0	503	516	0	536	39	16	
7	0	0	0	0	507	515	0	540	39	16	
8	0	0	0	0	508	514	0	550	39	17	
9	0	0	0	0	506	517	0	545	39	15	
10	0	0	0	0	507	520	0	548	39	14	
11	0	0	0	0	505	521	0	554	39	12	
12	0	0	0	0	508	519	0	552	39	12	
13	0	0	0	0	511	512	0	561	39	14	
14	0	0	0	0	518	500	0	559	39	15	
15	0	0	0	0	519	486	0	561	39	16	
0	0	0	0	0	518	473	0	567	39	17	
1	0	0	0	0	512	473	0	560	39	16	
2	0	0	0	0	505	480	0	568	39	14	
3	0	0	0	0	503	489	0	563	39	13	
4	0	0	0	0	499	499	0	562	39	12	
5	0	0	0	0	499	509	0	568	39	13	
6	0	0	0	0	500	515	0	556	39	15	
7	0	0	0	0	504	516	0	560	39	16	
8	0	0	0	0	509	513	0	548	39	17	
9	0	0	0	0	504	513	0	547	39	16	
10	0	0	0	0	505	516	0	548	39	15	
11	0	0	0	0	505	519	0	539	39	13	
12	0	0	0	0	507	519	0	545	39	12	
13	0	0	0	0	511	515	0	541	39	13	
14	0	0	0	0	514	508	0	544	39	14	
15	0	0	0	0	515	495	0	548	39	15	
0	0	0	0	0	521	481	0	543	38	16	
1	0	0	0	0	512	473	0	556	38	17	
2	0	0	0	0	508	477	0	555	39	15	
3	0	0	0	0	504	486	0	558	38	14	
4	0	0	0	0	504	495	0	558	39	12	
5	0	0	0	0	499	503	0	547	38	12	
6	0	0	0	0	503	511	0	537	39	14	
7	0	0	0	0	504	515	0	540	39	15	
8	0	0	0	0	504	519	0	547	39	16	
9	0	0	0	0	509	515	0	531	39	17	
10	0	0	0	0	507	514	0	523	39	16	
11	0	0	0	0	505	516	0	517	39	14	
12	0	0	0	0	506	519	0	513	39	13	
13	0	0	0	0	508	518	0	498	39	12	
14	0	0	0	0	508	513	0	483	39	13	
15	0	0	0	0	513	506	0	473	39	15	
0	0	0	0	0	518	495	0	466	39	16	
1	0	0	0	0	520	482	0	462	39	17	
2	0	0	0	0	513	476	0	460	39	16	
3	0	0	0	0	507	479	0	461	39	15	
4	0	0	0	0	505	489	0	462	38	13	
5	0	0	0	0	499	499	0	464	38	12	
6	0	0	0	0	500	508	0	463	39	13	
7	0	0	0	0	504	516	0	459	38	14	
8	0	0	0	0	503	519	0	464	38	15	
9	0	0	0	0	508	518	0	484	39	16	
10	0	0	0	0	506	514	0	494	39	17	
11	0	0	0	0	506	515	0	514	38	16	
12	0	0	0	0	505	521	0	523	38	14	
13	0	0	0	0	508	522	0	524	39	12	
14	0	0	0	0	507	519	0	523	39	12	
15	0	0	0	0	510	512	0	535	39	14	
0	0	0	0	0	515	502	0	531	39	15	
1	0	0	0	0	517	489	0	529	39	16	
2	0	0	0	0	515	477	0	531	39	17	
3	0	0	0	0	511	476	0	534	39	16	
4	0	0	0	0	505	481	0	534	39	14	
5	0	0	0	0	503	491	0	533	39	13	
6	0	0	0	0	500	502	0	522	39	12	
7	0	0	0	0	499	510	0	508	39	13	
8	0	0	0	0	503	516	0	499	39	15	
9	0	0	0	0	505	518	0	485	39	16	
10	0	0	0	0	507	515	0	476	39	17	
11	0	0	0	0	505	514	0	469	39	16	
12	0	0	0	0	504	517	0	472	39	15	
13	0	0	0	0	502	519	0	464	39	13	
14	0	0	0	0	507	519	0	464	39	12	
15	0	0	0	0	511	515	0	462	38	13	
0	0	0	0	0	513	510	0	461	39	14	
1	0	0	0	0	518	497	0	470	39	15	
2	0	0	0	0	520	484	0	501	39	16	
3	0	0	0	0	517	475	0	518	39	17	
4	0	0	0	0	512	476	0	540	39	16	
5	0	0	0	0	504	485	0	554	39	14	
6	0	0	0	0	500	496	0	557	39	12	
7	0	0	0	0	501	505	0	564	39	12	
8	0	0	0	0	498	513	0	551	39	14	
9	0	0	0	0	501	518	0	554	38	15	
10	0	0	0	0	505	516	0	551	38	16	
11	0	0	0	0	508	513	0	545	39	17	
12	0	0	0	0	507	514	0	537	39	16	
13	0	0	0	0	505	518	0	531	39	14	
14	0	0	0	0	508	520	0	528	39	13	
15	0	0	0	0	509	519	0	511	39	12	
0	0	0	0	0	511	513	0	497	39	13	
1	0	0	0	0	514	503	0	484	39	15	
2	0	0	0	0	520	492	0	478	39	16	
3	0	0	0	0	520	477	0	492	39	17	
4	0	0	0	0	512	471	0	478	39	16	
5	0	0	0	0	507	476	0	480	39	15	
6	0	0	0	0	503	483	0	483	39	13	
7	0	0	0	0	502	494	0	484	39	12	
8	0	0	0	0	499	505	0	480	39	13	
9	0	0	0	0	502	515	0	476	39	14	
10	0	0	0	0	503	518	0	484	39	15	
11	0	0	0	0	504	517	0	507	39	16	
12	0	0	0	0	508	513	0	517	39	17	
13	0	0	0	0	505	517	0	537	39	16	
14	0	0	0	0	506	521	0	545	39	14	
15	0	0	0	0	505	520	0	548	39	12	
0	0	0	0	0	507	517	0	560	39	12	
1	0	0	0	0	510	511	0	557	39	14	
2	0	0	0	0	515	502	0	564	39	15	
3	0	0	0	0	519	489	0	563	39	16	
4	0	0	0	0	517	477	0	561	39	17	
5	0	0	0	0	511	476	0	556	39	16	
6	0	0	0	0	504	485	0	552	39	14	
7	0	0	0	0	504	495	0	552	39	13	
8	0	0	0	0	500	503	0	537	39	12	
9	0	0	0	0	499	512	0	523	39	13	
10	0	0	0	0	503	518	0	509	39	15	
11	0	0	0	0	504	520	0	497	39	16	
12	0	0	0	0	505	517	0	493	38	17	
13	0	0	0	0	508	518	0	487	39	16	
14	0	0	0	0	505	518	0	483	39	15	
15	0	0	0	0	505	521	0	477	39	13	
0	0	0	0	0	506	519	0	471	39	12	
1	0	0	0	0	508	515	0	471	39	13	
2	0	0	0	0	512	509	0	467	39	14	
3	0	0	0	0	516	497	0	484	39	15	
4	0	0	0	0	519	485	0	516	39	16	
5	0	0	0	0	516	476	0	531	39	17	
6	0	0	0	0	510	480	0	556	39	16	
7	0	0	0	0	506	488	0	562	39	14	
8	0	0	0	0	504	497	0	564	39	12	
9	0	0	0	0	505	505	0	576	39	12	
10	0	0	0	0	503	515	0	571	39	14	
11	0	0	0	0	499	518	0	577	39	15	
12	0	0	0	0	504	517	0	588	39	16	
13	0	0	0	0	505	515	0	571	39	17	
14	0	0	0	0	504	515	0	564	39	16	
15	0	0	0	0	504	518	0	572	39	14	
0	0	0	0	0	507	519	0	571	39	13	
1	0	0	0	0	510	517	0	570	38	12	
2	0	0	0	0	512	511	0	573	39	13	
3	0	0	0	0	515	502	0	565	39	15	
4	0	0	0	0	517	488	0	561	39	16	
5	0	0	0	0	519	475	0	575	39	17	
6	0	0	0	0	512	470	0	578	39	16	
7	0	0	0	0	508	476	0	575	39	15	
8	0	0	0	0	503	485	0	571	39	13	
9	0	0	0	0	501	497	0	568	39	12	
10	0	0	0	0	500	508	0	563	39	13	
11	0	0	0	0	500	517	0	547	39	14	
12	0	0	0	0	501	520	0	540	39	15	
13	0	0	0	0	507	518	0	532	39	16	
14	0	0	0	0	507	515	0	525	39	17	
15	0	0	0	0	507	518	0	512	39	16	
0	0	0	0	0	504	522	0	500	39	14	
1	0	0	0	0	507	522	0	489	39	12	
2	0	0	0	0	509	518	0	487	39	12	
3	0	0	0	0	511	513	0	483	39	14	
4	0	0	0	0	518	504	0	482	39	15	
5	0	0	0	0	519	493	0	483	39	16	
6	0	0	0	0	518	481	0	489	39	17	
7	0	0	0	0	510	479	0	495	38	16	
8	0	0	0	0	506	487	0	495	39	14	
9	0	0	0	0	502	496	0	494	38	13	
10	0	0	0	0	502	506	0	493	38	12	
11	0	0	0	0	500	514	0	496	38	13	
12	0	0	0	0	503	520	0	493	39	15	
13	0	0	0	0	504	520	0	492	38	16	
14	0	0	0	0	508	518	0	491	39	17	
15	0	0	0	0	505	515	0	489	39	16	
0	0	0	0	0	504	517	0	484	39	15	
1	0	0	0	0	504	521	0	480	39	13	
2	0	0	0	0	508	520	0	479	39	12	
3	0	0	0	0	509	515	0	478	39	13	
4	0	0	0	0	513	509	0	482	39	14	
5	0	0	0	0	518	500	0	483	39	15	
6	0	0	0	0	519	487	0	495	39	16	
7	0	0	0	0	516	478	0	522	39	17	
8	0	0	0	0	512	479	0	533	39	16	
9	0	0	0	0	506	487	0	551	39	14	
10	0	0	0	0	501	497	0	563	39	12	
11	0	0	0	0	499	505	0	566	39	12	
12	0	0	0	0	499	513	0	578	39	14	
13	0	0	0	0	504	516	0	574	39	15	
14	0	0	0	0	504	516	0	572	39	16	
15	0	0	0	0	506	512	0	576	39	17	
0	0	0	0	0	504	512	0	567	39	16	
1	0	0	0	0	504	514	0	571	39	14	
2	0	0	0	0	504	517	0	561	39	13	
3	0	0	0	0	509	514	0	548	39	12	
4	0	0	0	0	511	509	0	542	39	13	
5	0	0	0	0	512	501	0	536	39	15	
6	0	0	0	0	516	490	0	537	39	16	
7	0	0	0	0	520	477	0	537	39	17	
8	0	0	0	0	514	472	0	530	39	16	
9	0	0	0	0	509	475	0	520	39	15	
10	0	0	0	0	504	485	0	511	39	13	
11	0	0	0	0	500	495	0	505	39	12	
12	0	0	0	0	501	505	0	497	39	13	
13	0	0	0	0	499	513	0	490	39	14	
14	0	0	0	0	504	517	0	496	39	15	
15	0	0	0	0	505	518	0	516	39	16	
0	0	0	0	0	507	516	0	521	39	17	
1	0	0	0	0	505	517	0	534	38	16	
2	0	0	0	0	505	520	0	539	39	14	
3	0	0	0	0	508	521	0	542	39	12	
4	0	0	0	0	510	516	0	553	39	12	
5	0	0	0	0	514	510	0	552	39	14	
6	0	0	0	0	517	499	0	557	39	15	
7	0	0	0	0	517	488	0	557	38	16	
8	0	0	0	0	517	477	0	555	39	17	
9	0	0	0	0	509	476	0	563	38	16	
10	0	0	0	0	503	484	0	558	39	14	
11	0	0	0	0	501	494	0	554	39	13	
12	0	0	0	0	502	503	0	549	38	12	
13	0	0	0	0	501	513	0	545	38	13	
14	0	0	0	0	503	518	0	535	39	15	
15	0	0	0	0	507	518	0	519	39	16	
0	0	0	0	0	507	515	0	504	38	17	
1	0	0	0	0	506	516	0	490	39	16	
2	0	0	0	0	504	518	0	481	39	15	
3	0	0	0	0	503	521	0	475	39	13	
4	0	0	0	0	506	521	0	470	39	12	
5	0	0	0	0	509	516	0	467	39	13	
6	0	0	0	0	511	508	0	464	39	14	
7	0	0	0	0	515	496	0	477	39	15	
8	0	0	0	0	520	484	0	497	39	16	
9	0	0	0	0	517	475	0	506	39	17	
10	0	0	0	0	511	478	0	527	38	16	
11	0	0	0	0	504	487	0	540	39	14	
12	0	0	0	0	504	495	0	546	39	12	
13	0	0	0	0	502	506	0	539	38	12	
14	0	0	0	0	501	513	0	534	39	14	
15	0	0	0	0	503	518	0	527	39	15	
0	0	0	0	0	506	518	0	512	39	16	
1	0	0	0	0	507	516	0	497	39	17	
2	0	0	0	0	504	516	0	485	39	16	
3	0	0	0	0	504	518	0	476	39	14	
4	0	0	0	0	505	520	0	465	39	13	
5	0	0	0	0	511	518	0	460	39	12	
6	0	0	0	0	512	513	0	455	39	13	
7	0	0	0	0	515	505	0	455	38	15	
8	0	0	0	0	518	492	0	458	38	16	
9	0	0	0	0	523	480	0	458	38	17	
10	0	0	0	0	513	475	0	462	38	16	
11	0	0	0	0	509	478	0	468	39	15	
12	0	0	0	0	502	486	0	473	39	13	
13	0	0	0	0	499	497	0	475	39	12	
14	0	0	0	0	498	509	0	476	39	13	
15	0	0	0	0	497	517	0	472	39	14	
0	0	0	0	0	504	520	0	478	39	15	
1	0	0	0	0	507	518	0	497	39	16	
2	0	0	0	0	506	516	0	505	39	17	
3	0	0	0	0	504	516	0	525	39	16	
4	0	0	0	0	505	520	0	533	39	14	
5	0	0	0	0	505	521	0	536	39	12	
6	0	0	0	0	509	517	0	546	39	12	
7	0	0	0	0	510	511	0	540	39	14	
8	0	0	0	0	517	503	0	549	39	15	
9	0	0	0	0	517	489	0	547	39	16	
10	0	0	0	0	518	478	0	547	39	17	
11	0	0	0	0	511	477	0	545	39	16	
12	0	0	0	0	509	484	0	542	39	14	
13	0	0	0	0	504	496	0	542	39	13	
14	0	0	0	0	500	505	0	527	39	12	
15	0	0	0	0	499	513	0	514	39	13	
0	0	0	0	0	501	519	0	499	39	15	
1	0	0	0	0	504	519	0	489	39	16	
2	0	0	0	0	505	516	0	480	39	17	
3	0	0	0	0	504	516	0	477	39	16	
4	0	0	0	0	502	518	0	470	39	15	
5	0	0	0	0	504	518	0	467	39	13	
6	0	0	0	0	509	517	0	466	39	12	
7	0	0	0	0	509	514	0	460	39	13	
8	0	0	0	0	511	508	0	459	39	14	
9	0	0	0	0	515	498	0	469	38	15	
10	0	0	0	0	519	485	0	499	39	16	
11	0	0	0	0	518	476	0	512	39	17	
12	0	0	0	0	509	477	0	513	39	16	
13	0	0	0	0	505	484	0	515	38	14	
14	0	0	0	0	503	493	0	502	39	12	
15	0	0	0	0	501	503	0	498	39	12	
0	0	0	0	0	500	512	0	516	39	14	
1	0	0	0	0	504	516	0	521	39	15	
2	0	0	0	0	504	517	0	531	39	16	
3	0	0	0	0	505	515	0	546	39	17	
4	0	0	0	0	503	517	0	546	39	16	
5	0	0	0	0	505	519	0	545	39	14	
6	0	0	0	0	505	520	0	554	39	13	
7	0	0	0	0	507	516	0	556	39	12	
8	0	0	0	0	511	510	0	550	39	13	
9	0	0	0	0	513	503	0	545	39	15	
10	0	0	0	0	518	491	0	544	39	16	
11	0	0	0	0	521	478	0	546	39	17	
12	0	0	0	0	515	472	0	536	39	16	
13	0	0	0	0	508	477	0	525	39	15	
14	0	0	0	0	503	486	0	515	39	13	
15	0	0	0	0	503	496	0	506	39	12	
0	0	0	0	0	502	505	0	512	39	13	
1	0	0	0	0	500	515	0	489	39	14	
2	0	0	0	0	504	517	0	495	39	15	
3	0	0	0	0	507	518	0	519	38	16	
4	0	0	0	0	507	516	0	529	38	17	
5	0	0	0	0	507	518	0	547	38	16	
6	0	0	0	0	506	518	0	552	39	14	
7	0	0	0	0	507	520	0	549	39	12	
8	0	0	0	0	511	516	0	547	39	12	
9	0	0	0	0	514	507	0	543	39	14	
10	0	0	0	0	516	499	0	543	39	15	
11	0	0	0	0	519	488	0	535	39	16	
12	0	0	0	0	521	476	0	527	39	17	
13	0	0	0	0	512	474	0	524	39	16	
14	0	0	0	0	505	482	0	516	39	14	
15	0	0	0	0	504	491	0	512	39	13	
0	0	0	0	0	502	502	0	504	39	12	
1	0	0	0	0	502	510	0	497	39	13	
2	0	0	0	0	505	516	0	501	39	15	
3	0	0	0	0	505	519	0	492	39	16	
4	0	0	0	0	507	517	0	490	39	17	
5	0	0	0	0	503	514	0	490	38	16	
6	0	0	0	0	499	517	0	491	39	15	
7	0	0	0	0	498	520	0	489	39	13	
8	0	0	0	0	505	519	0	484	39	12	
9	0	0	0	0	509	515	0	481	39	13	
10	0	0	0	0	511	509	0	481	39	14	
11	0	0	0	0	518	497	0	489	39	15	
12	0	0	0	0	520	484	0	494	39	16	
13	0	0	0	0	516	474	0	500	39	17	
14	0	0	0	0	512	476	0	506	39	16	
15	0	0	0	0	505	483	0	506	39	14	
0	0	0	0	0	500	492	0	523	39	12	
1	0	0	0	0	501	502	0	541	39	12	
2	0	0	0	0	500	510	0	546	39	14	
3	0	0	0	0	505	515	0	540	39	15	
4	0	0	0	0	505	516	0	531	39	16	
5	0	0	0	0	507	514	0	521	39	17	
6	0	0	0	0	505	514	0	515	39	16	
7	0	0	0	0	504	518	0	508	39	14	
8	0	0	0	0	506	520	0	501	38	13	
9	0	0	0	0	508	518	0	510	39	12	
10	0	0	0	0	510	511	0	494	39	13	
11	0	0	0	0	514	505	0	497	39	15	
12	0	0	0	0	519	495	0	504	39	16	
13	0	0	0	0	521	482	0	535	39	17	
14	0	0	0	0	512	475	0	556	39	16	
15	0	0	0	0	507	480	0	559	39	15	
0	0	0	0	0	504	489	0	552	39	13	
1	0	0	0	0	501	499	0	543	39	12	
2	0	0	0	0	500	507	0	535	39	13	
3	0	0	0	0	502	515	0	543	39	14	
4	0	0	0	0	506	518	0	556	38	15	
5	0	0	0	0	507	517	0	553	39	16	
6	0	0	0	0	507	515	0	545	39	17	
7	0	0	0	0	504	517	0	530	39	16	
8	0	0	0	0	502	519	0	515	38	14	
9	0	0	0	0	506	520	0	504	39	12	
10	0	0	0	0	510	516	0	501	39	12	
11	0	0	0	0	512	511	0	500	39	14	
12	0	0	0	0	516	502	0	513	39	15	
13	0	0	0	0	518	491	0	507	39	16	
14	0	0	0	0	520	479	0	525	39	17	
15	0	0	0	0	509	477	0	553	39	16	
0	0	0	0	0	504	484	0	563	39	14	
1	0	0	0	0	505	494	0	555	39	13	
2	0	0	0	0	499	504	0	546	38	12	
3	0	0	0	0	501	513	0	536	39	13	
4	0	0	0	0	500	520	0	526	39	15	
5	0	0	0	0	505	519	0	520	39	16	
6	0	0	0	0	507	516	0	515	39	17	
7	0	0	0	0	507	515	0	507	38	16	
8	0	0	0	0	505	516	0	501	39	15	
9	0	0	0	0	504	519	0	497	39	13	
10	0	0	0	0	508	516	0	494	39	12	
11	0	0	0	0	507	513	0	493	39	13	
12	0	0	0	0	511	506	0	494	39	14	
13	0	0	0	0	517	497	0	498	39	15	
14	0	0	0	0	520	483	0	504	39	16	
15	0	0	0	0	513	472	0	507	39	17	
0	0	0	0	0	510	474	0	508	38	16	
1	0	0	0	0	504	483	0	507	38	14	
2	0	0	0	0	503	494	0	507	38	12	
3	0	0	0	0	501	507	0	508	39	12	
4	0	0	0	0	500	516	0	510	39	14	
5	0	0	0	0	504	520	0	531	39	15	
6	0	0	0	0	506	519	0	542	39	16	
7	0	0	0	0	508	516	0	540	39	17	
8	0	0	0	0	506	516	0	525	39	16	
9	0	0	0	0	506	519	0	511	39	14	
10	0	0	0	0	506	520	0	504	39	13	
11	0	0	0	0	507	518	0	516	39	12	
12	0	0	0	0	512	513	0	537	39	13	
13	0	0	0	0	515	507	0	546	39	15	
14	0	0	0	0	516	497	0	569	39	16	
15	0	0	0	0	520	483	0	578	39	17	
0	0	0	0	0	513	478	0	591	39	16	
1	0	0	0	0	508	482	0	599	39	15	
2	0	0	0	0	504	491	0	595	39	13	
3	0	0	0	0	501	500	0	604	39	12	
4	0	0	0	0	501	510	0	601	39	13	
5	0	0	0	0	500	519	0	598	39	14	
6	0	0	0	0	503	521	0	595	39	15	
7	0	0	0	0	507	518	0	583	39	16	
8	0	0	0	0	505	515	0	589	39	17	
9	0	0	0	0	506	515	0	583	38	16	
10	0	0	0	0	502	519	0	582	39	14	
11	0	0	0	0	508	521	0	584	39	12	
12	0	0	0	0	511	517	0	576	38	12	
13	0	0	0	0	511	512	0	571	38	14	
14	0	0	0	0	517	503	0	564	39	15	
15	0	0	0	0	518	491	0	563	38	16	
0	0	0	0	0	517	478	0	555	39	17	
1	0	0	0	0	512	475	0	546	38	16	
2	0	0	0	0	505	482	0	534	39	14	
3	0	0	0	0	503	492	0	525	39	13	
4	0	0	0	0	499	501	0	517	39	12	
5	0	0	0	0	496	510	0	509	39	13	
6	0	0	0	0	502	515	0	506	39	15	
7	0	0	0	0	503	518	0	498	39	16	
8	0	0	0	0	507	516	0	490	39	17	
9	0	0	0	0	505	517	0	486	39	16	
10	0	0	0	0	505	520	0	486	39	15	
11	0	0	0	0	506	522	0	488	39	13	
12	0	0	0	0	508	521	0	487	39	12	
13	0	0	0	0	510	517	0	486	39	13	
14	0	0	0	0	512	510	0	486	39	14	
15	0	0	0	0	519	498	0	497	38	15	
0	0	0	0	0	523	485	0	521	39	16	
1	0	0	0	0	516	477	0	531	39	17	
2	0	0	0	0	510	478	0	551	39	16	
3	0	0	0	0	506	486	0	563	39	14	
4	0	0	0	0	502	498	0	571	39	12	
5	0	0	0	0	497	508	0	583	39	12	
6	0	0	0	0	500	516	0	579	39	14	
7	0	0	0	0	501	520	0	582	39	15	
8	0	0	0	0	504	519	0	576	38	16	
9	0	0	0	0	507	516	0	572	38	17	
10	0	0	0	0	505	516	0	576	39	16	
11	0	0	0	0	506	519	0	567	38	14	
12	0	0	0	0	507	522	0	558	38	13	
13	0	0	0	0	505	519	0	550	38	12	
14	0	0	0	0	512	512	0	549	39	13	
15	0	0	0	0	516	502	0	537	39	15	
0	0	0	0	0	518	491	0	526	39	16	
1	0	0	0	0	520	478	0	513	39	17	
2	0	0	0	0	513	472	0	506	39	16	
3	0	0	0	0	508	476	0	504	39	15	
4	0	0	0	0	504	485	0	503	39	13	
5	0	0	0	0	499	496	0	501	39	12	
6	0	0	0	0	498	508	0	499	39	13	
7	0	0	0	0	500	515	0	497	39	14	
8	0	0	0	0	504	518	0	497	39	15	
9	0	0	0	0	505	518	0	515	38	16	
10	0	0	0	0	506	517	0	524	39	17	
11	0	0	0	0	505	519	0	542	39	16	
12	0	0	0	0	505	523	0	566	39	14	
13	0	0	0	0	508	523	0	553	39	12	
14	0	0	0	0	511	520	0	563	39	12	
15	0	0	0	0	515	515	0	554	39	14	
0	0	0	0	0	518	505	0	561	39	15	
1	0	0	0	0	518	492	0	562	39	16	
2	0	0	0	0	519	480	0	564	39	17	
3	0	0	0	0	509	477	0	574	38	16	
4	0	0	0	0	503	485	0	569	39	14	
5	0	0	0	0	501	495	0	578	38	13	
6	0	0	0	0	499	505	0	573	39	12	
7	0	0	0	0	500	515	0	567	39	13	
8	0	0	0	0	501	520	0	565	39	15	
9	0	0	0	0	505	522	0	551	39	16	
10	0	0	0	0	508	519	0	555	38	17	
11	0	0	0	0	503	517	0	554	39	16	
12	0	0	0	0	503	517	0	550	39	15	
13	0	0	0	0	507	519	0	556	39	13	
14	0	0	0	0	508	519	0	550	39	12	
15	0	0	0	0	513	515	0	550	39	13	
0	0	0	0	0	514	508	0	547	39	14	
1	0	0	0	0	518	496	0	544	39	15	
2	0	0	0	0	518	483	0	557	39	16	
3	0	0	0	0	516	475	0	552	39	17	
4	0	0	0	0	510	477	0	562	38	16	
5	0	0	0	0	505	485	0	564	39	14	
6	0	0	0	0	501	495	0	561	39	12	
7	0	0	0	0	500	503	0	578	38	12	
8	0	0	0	0	499	512	0	555	39	14	
9	0	0	0	0	503	517	0	556	38	15	
10	0	0	0	0	507	518	0	552	38	16	
11	0	0	0	0	506	515	0	550	39	17	
12	0	0	0	0	504	515	0	556	39	16	
13	0	0	0	0	504	518	0	549	39	14	
14	0	0	0	0	507	520	0	541	39	13	
15	0	0	0	0	509	516	0	521	39	12	
0	0	0	0	0	511	512	0	515	39	13	
1	0	0	0	0	515	504	0	492	39	15	
2	0	0	0	0	518	494	0	486	39	16	
3	0	0	0	0	519	480	0	504	39	17	
4	0	0	0	0	512	475	0	517	39	16	
5	0	0	0	0	508	481	0	530	39	15	
6	0	0	0	0	504	490	0	545	39	13	
7	0	0	0	0	500	499	0	540	39	12	
8	0	0	0	0	500	508	0	547	39	13	
9	0	0	0	0	499	515	0	553	39	14	
10	0	0	0	0	504	518	0	545	39	15	
11	0	0	0	0	507	517	0	553	39	16	
12	0	0	0	0	508	515	0	547	39	17	
13	0	0	0	0	505	515	0	543	39	16	
14	0	0	0	0	503	516	0	542	39	14	
15	0	0	0	0	508	517	0	544	39	12	
0	0	0	0	0	510	515	0	533	38	12	
1	0	0	0	0	513	511	0	530	38	14	
2	0	0	0	0	515	503	0	527	39	15	
3	0	0	0	0	516	489	0	518	38	16	
4	0	0	0	0	517	476	0	508	39	17	
5	0	0	0	0	511	473	0	504	39	16	
6	0	0	0	0	505	479	0	496	39	14	
7	0	0	0	0	504	490	0	492	39	13	
8	0	0	0	0	501	500	0	487	39	12	
9	0	0	0	0	501	510	0	484	39	13	
10	0	0	0	0	502	516	0	483	39	15	
11	0	0	0	0	508	517	0	479	39	16	
12	0	0	0	0	510	515	0	476	39	17	
13	0	0	0	0	505	514	0	475	39	16	
14	0	0	0	0	505	516	0	475	39	15	
15	0	0	0	0	504	519	0	471	39	13	
0	0	0	0	0	507	520	0	467	39	12	
1	0	0	0	0	509	515	0	462	39	13	
2	0	0	0	0	511	508	0	460	39	14	
3	0	0	0	0	516	500	0	468	39	15	
4	0	0	0	0	520	486	0	473	38	16	
5	0	0	0	0	516	477	0	480	38	17	
6	0	0	0	0	510	479	0	484	39	16	
7	0	0	0	0	504	487	0	486	39	14	
8	0	0	0	0	504	497	0	484	39	12	
9	0	0	0	0	503	504	0	479	39	12	
10	0	0	0	0	501	512	0	479	39	14	
11	0	0	0	0	503	518	0	477	39	15	
12	0	0	0	0	506	518	0	487	39	16	
13	0	0	0	0	506	515	0	477	39	17	
14	0	0	0	0	504	516	0	478	39	16	
15	0	0	0	0	503	519	0	479	39	14	
0	0	0	0	0	503	523	0	476	39	13	
1	0	0	0	0	508	519	0	473	39	12	
2	0	0	0	0	510	515	0	474	39	13	
3	0	0	0	0	513	507	0	474	38	15	
4	0	0	0	0	515	495	0	480	39	16	
5	0	0	0	0	521	483	0	498	39	17	
6	0	0	0	0	514	476	0	491	39	16	
7	0	0	0	0	509	481	0	492	39	15	
8	0	0	0	0	504	490	0	491	39	13	
9	0	0	0	0	501	501	0	490	39	12	
10	0	0	0	0	500	510	0	490	39	13	
11	0	0	0	0	496	516	0	490	39	14	
12	0	0	0	0	501	519	0	489	39	15	
13	0	0	0	0	504	519	0	489	39	16	
14	0	0	0	0	507	515	0	491	39	17	
15	0	0	0	0	507	517	0	488	39	16	
0	0	0	0	0	504	520	0	483	39	14	
1	0	0	0	0	507	520	0	490	39	12	
2	0	0	0	0	508	516	0	515	39	12	
3	0	0	0	0	509	510	0	529	39	14	
4	0	0	0	0	514	500	0	550	38	15	
5	0	0	0	0	519	488	0	564	39	16	
6	0	0	0	0	518	476	0	574	39	17	
7	0	0	0	0	512	474	0	587	39	16	
8	0	0	0	0	505	480	0	585	38	14	
9	0	0	0	0	504	490	0	588	38	13	
10	0	0	0	0	499	500	0	589	38	12	
11	0	0	0	0	499	510	0	585	38	13	
12	0	0	0	0	504	516	0	593	38	15	
13	0	0	0	0	503	518	0	583	39	16	
14	0	0	0	0	507	516	0	583	39	17	
15	0	0	0	0	503	514	0	573	38	16	
0	0	0	0	0	503	517	0	564	39	15	
1	0	0	0	0	503	519	0	571	39	13	
2	0	0	0	0	510	519	0	560	39	12	
3	0	0	0	0	510	514	0	565	39	13	
4	0	0	0	0	515	508	0	565	39	14	
5	0	0	0	0	517	497	0	566	39	15	
6	0	0	0	0	517	485	0	589	39	16	
7	0	0	0	0	516	474	0	574	39	17	
8	0	0	0	0	511	475	0	580	39	16	
9	0	0	0	0	505	483	0	578	39	14	
10	0	0	0	0	505	492	0	574	39	12	
11	0	0	0	0	503	503	0	566	39	12	
12	0	0	0	0	500	511	0	559	39	14	
13	0	0	0	0	503	518	0	551	39	15	
14	0	0	0	0	506	517	0	535	39	16	
15	0	0	0	0	504	515	0	521	39	17	
0	0	0	0	0	503	516	0	507	39	16	
1	0	0	0	0	506	518	0	496	39	14	
2	0	0	0	0	507	519	0	489	39	13	
3	0	0	0	0	510	515	0	483	39	12	
4	0	0	0	0	511	510	0	483	38	13	
5	0	0	0	0	515	503	0	479	39	15	
6	0	0	0	0	513	492	0	482	39	16	
7	0	0	0	0	512	479	0	484	39	17	
8	0	0	0	0	509	472	0	485	38	16	
9	0	0	0	0	508	476	0	493	38	15	
10	0	0	0	0	506	488	0	488	39	13	
11	0	0	0	0	503	498	0	491	39	12	
12	0	0	0	0	502	508	0	492	39	13	
13	0	0	0	0	501	516	0	492	39	14	
14	0	0	0	0	504	518	0	502	39	15	
15	0	0	0	0	506	518	0	522	39	16	
0	0	0	0	0	505	515	0	527	39	17	
1	0	0	0	0	503	515	0	544	39	16	
2	0	0	0	0	506	519	0	555	39	14	
3	0	0	0	0	509	518	0	557	39	12	
4	0	0	0	0	508	514	0	570	39	12	
5	0	0	0	0	510	511	0	567	38	14	
6	0	0	0	0	514	502	0	572	39	15	
7	0	0	0	0	519	488	0	574	39	16	
8	0	0	0	0	520	475	0	572	39	17	
9	0	0	0	0	513	472	0	579	39	16	
10	0	0	0	0	508	478	0	574	39	14	
11	0	0	0	0	504	487	0	580	39	13	
12	0	0	0	0	503	498	0	586	39	12	
13	0	0	0	0	501	508	0	571	39	13	
14	0	0	0	0	502	514	0	562	39	15	
15	0	0	0	0	502	515	0	568	39	16	
0	0	0	0	0	508	514	0	564	39	17	
1	0	0	0	0	504	515	0	556	39	16	
2	0	0	0	0	507	518	0	551	39	15	
3	0	0	0	0	504	519	0	545	38	13	
4	0	0	0	0	507	519	0	537	38	12	
5	0	0	0	0	510	515	0	525	38	13	
6	0	0	0	0	510	509	0	508	39	14	
7	0	0	0	0	515	497	0	507	39	15	
8	0	0	0	0	519	485	0	507	39	16	
9	0	0	0	0	514	476	0	503	39	17	
10	0	0	0	0	509	478	0	516	39	16	
11	0	0	0	0	507	486	0	496	39	14	
12	0	0	0	0	503	495	0	492	39	12	
13	0	0	0	0	500	505	0	489	38	12	
14	0	0	0	0	501	516	0	485	39	14	
15	0	0	0	0	507	519	0	479	38	15	
0	0	0	0	0	507	520	0	472	39	16	
1	0	0	0	0	509	518	0	465	39	17	
2	0	0	0	0	508	519	0	461	39	16	
3	0	0	0	0	505	522	0	471	39	14	
4	0	0	0	0	505	525	0	462	39	13	
5	0	0	0	0	509	522	0	460	38	12	
6	0	0	0	0	512	516	0	462	39	13	
7	0	0	0	0	513	508	0	463	39	15	
8	0	0	0	0	519	497	0	463	39	16	
9	0	0	0	0	520	484	0	463	39	17	
10	0	0	0	0	511	479	0	466	39	16	
11	0	0	0	0	506	481	0	473	39	15	
12	0	0	0	0	502	490	0	480	39	13	
13	0	0	0	0	502	500	0	481	39	12	
14	0	0	0	0	499	508	0	482	39	13	
15	0	0	0	0	502	516	0	478	39	14	
0	0	0	0	0	501	519	0	483	39	15	
1	0	0	0	0	507	516	0	508	39	16	
2	0	0	0	0	507	515	0	518	39	17	
3	0	0	0	0	503	515	0	536	38	16	
4	0	0	0	0	502	518	0	542	39	14	
5	0	0	0	0	505	519	0	543	39	12	
6	0	0	0	0	508	518	0	556	39	12	
7	0	0	0	0	511	512	0	549	39	14	
8	0	0	0	0	515	503	0	555	38	15	
9	0	0	0	0	518	489	0	558	39	16	
10	0	0	0	0	520	478	0	557	39	17	
11	0	0	0	0	513	476	0	571	39	16	
12	0	0	0	0	507	483	0	563	39	14	
13	0	0	0	0	504	494	0	556	39	13	
14	0	0	0	0	499	505	0	551	39	12	
15	0	0	0	0	500	513	0	544	39	13	
0	0	0	0	0	502	518	0	535	39	15	
1	0	0	0	0	505	519	0	516	38	16	
2	0	0	0	0	508	516	0	500	39	17	
3	0	0	0	0	505	515	0	488	39	16	
4	0	0	0	0	503	517	0	482	39	15	
5	0	0	0	0	500	521	0	479	39	13	
6	0	0	0	0	506	521	0	472	39	12	
7	0	0	0	0	510	518	0	463	39	13	
8	0	0	0	0	511	511	0	458	39	14	
9	0	0	0	0	519	499	0	468	39	15	
10	0	0	0	0	519	486	0	501	39	16	
11	0	0	0	0	516	478	0	514	39	17	
12	0	0	0	0	512	478	0	538	39	16	
13	0	0	0	0	504	485	0	551	39	14	
14	0	0	0	0	505	495	0	557	39	12	
15	0	0	0	0	502	505	0	561	39	12	
0	0	0	0	0	500	513	0	550	39	14	
1	0	0	0	0	504	520	0	551	39	15	
2	0	0	0	0	506	519	0	549	39	16	
3	0	0	0	0	508	516	0	536	38	17	
4	0	0	0	0	504	517	0	517	38	16	
5	0	0	0	0	504	519	0	503	38	14	
6	0	0	0	0	504	523	0	512	39	13	
7	0	0	0	0	507	520	0	515	38	12	
8	0	0	0	0	511	514	0	506	38	13	
9	0	0	0	0	513	506	0	494	39	15	
10	0	0	0	0	516	495	0	486	38	16	
11	0	0	0	0	519	481	0	483	39	17	
12	0	0	0	0	512	474	0	481	38	16	
13	0	0	0	0	507	479	0	494	38	15	
14	0	0	0	0	504	488	0	483	39	13	
15	0	0	0	0	501	500	0	481	38	12	
0	0	0	0	0	501	510	0	474	38	13	
1	0	0	0	0	500	517	0	470	38	14	
2	0	0	0	0	505	518	0	467	39	15	
3	0	0	0	0	508	516	0	465	39	16	
4	0	0	0	0	508	512	0	468	39	17	
5	0	0	0	0	504	513	0	468	39	16	
6	0	0	0	0	504	515	0	470	39	14	
7	0	0	0	0	507	516	0	468	39	12	
8	0	0	0	0	507	513	0	465	39	12	
9	0	0	0	0	508	508	0	464	39	14	
10	0	0	0	0	516	498	0	464	39	15	
11	0	0	0	0	518	485	0	473	39	16	
12	0	0	0	0	518	473	0	477	39	17	
13	0	0	0	0	512	471	0	484	39	16	
14	0	0	0	0	506	479	0	489	39	14	
15	0	0	0	0	502	490	0	487	39	13	
0	0	0	0	0	499	499	0	496	39	12	
1	0	0	0	0	502	508	0	491	39	13	
2	0	0	0	0	504	516	0	514	39	15	
3	0	0	0	0	504	518	0	520	39	16	
4	0	0	0	0	507	515	0	515	39	17	
5	0	0	0	0	504	514	0	518	38	16	
6	0	0	0	0	499	515	0	512	39	15	
7	0	0	0	0	505	518	0	531	38	13	
8	0	0	0	0	511	517	0	534	38	12	
9	0	0	0	0	512	514	0	524	38	13	
10	0	0	0	0	514	507	0	517	39	14	
11	0	0	0	0	517	497	0	505	39	15	
12	0	0	0	0	521	484	0	508	38	16	
13	0	0	0	0	517	473	0	533	39	17	
14	0	0	0	0	510	476	0	543	39	16	
15	0	0	0	0	504	485	0	551	39	14	
0	0	0	0	0	501	495	0	521	39	12	
1	0	0	0	0	499	503	0	505	39	12	
2	0	0	0	0	499	510	0	495	39	14	
3	0	0	0	0	502	515	0	491	39	15	
4	0	0	0	0	505	515	0	486	38	16	
5	0	0	0	0	507	513	0	483	39	17	
6	0	0	0	0	505	513	0	482	39	16	
7	0	0	0	0	503	515	0	481	39	14	
8	0	0	0	0	506	518	0	477	39	13	
9	0	0	0	0	508	517	0	472	39	12	
10	0	0	0	0	509	513	0	481	39	13	
11	0	0	0	0	513	506	0	507	39	15	
12	0	0	0	0	516	494	0	516	39	16	
13	0	0	0	0	520	481	0	519	38	17	
14	0	0	0	0	514	474	0	533	39	16	
15	0	0	0	0	508	479	0	551	39	15	
0	0	0	0	0	504	489	0	552	39	13	
1	0	0	0	0	500	499	0	565	39	12	
2	0	0	0	0	500	509	0	567	39	13	
3	0	0	0	0	501	517	0	568	38	14	
4	0	0	0	0	505	519	0	571	39	15	
5	0	0	0	0	507	519	0	562	38	16	
6	0	0	0	0	504	516	0	572	39	17	
7	0	0	0	0	504	516	0	583	39	16	
8	0	0	0	0	502	519	0	568	39	14	
9	0	0	0	0	508	520	0	566	39	12	
10	0	0	0	0	509	516	0	556	39	12	
11	0	0	0	0	513	511	0	565	39	14	
12	0	0	0	0	516	502	0	563	39	15	
13	0	0	0	0	519	491	0	568	39	16	
14	0	0	0	0	518	480	0	577	39	17	
15	0	0	0	0	511	480	0	575	39	16	
0	0	0	0	0	505	486	0	585	39	14	
1	0	0	0	0	502	495	0	578	39	13	
2	0	0	0	0	500	504	0	575	39	12	
3	0	0	0	0	501	513	0	573	39	13	
4	0	0	0	0	500	518	0	560	38	15	
5	0	0	0	0	501	518	0	564	39	16	
6	0	0	0	0	507	515	0	555	39	17	
7	0	0	0	0	505	515	0	553	39	16	
8	0	0	0	0	506	516	0	555	39	15	
9	0	0	0	0	503	519	0	544	39	13	
10	0	0	0	0	508	518	0	553	39	12	
11	0	0	0	0	510	516	0	548	39	13	
12	0	0	0	0	514	509	0	551	39	14	
13	0	0	0	0	517	498	0	560	39	15	
14	0	0	0	0	520	484	0	558	39	16	
15	0	0	0	0	518	473	0	569	39	17	
0	0	0	0	0	511	474	0	562	39	16	
1	0	0	0	0	502	483	0	564	38	14	
2	0	0	0	0	501	493	0	571	39	12	
3	0	0	0	0	498	503	0	564	38	12	
4	0	0	0	0	500	511	0	572	39	14	
5	0	0	0	0	502	517	0	564	38	15	
6	0	0	0	0	507	517	0	559	39	16	
7	0	0	0	0	509	515	0	555	39	17	
8	0	0	0	0	507	517	0	544	38	16	
9	0	0	0	0	503	519	0	550	38	14	
10	0	0	0	0	504	521	0	543	39	13	
11	0	0	0	0	508	518	0	543	39	12	
12	0	0	0	0	511	513	0	547	39	13	
13	0	0	0	0	513	505	0	544	38	15	
14	0	0	0	0	519	492	0	559	39	16	
15	0	0	0	0	518	479	0	561	39	17	
0	0	0	0	0	511	473	0	564	39	16	
1	0	0	0	0	509	478	0	568	39	15	
2	0	0	0	0	506	487	0	563	39	13	
3	0	0	0	0	503	497	0	569	39	12	
4	0	0	0	0	500	507	0	563	39	13	
5	0	0	0	0	503	514	0	554	39	14	
6	0	0	0	0	504	516	0	551	39	15	
7	0	0	0	0	506	516	0	558	39	16	
8	0	0	0	0	507	513	0	551	39	17	
9	0	0	0	0	505	515	0	544	38	16	
10	0	0	0	0	503	518	0	537	39	14	
11	0	0	0	0	505	520	0	544	39	12	
12	0	0	0	0	510	518	0	522	39	12	
13	0	0	0	0	514	512	0	508	39	14	
14	0	0	0	0	517	502	0	496	39	15	
15	0	0	0	0	518	489	0	489	39	16	
0	0	0	0	0	519	478	0	485	39	17	
1	0	0	0	0	511	476	0	481	39	16	
2	0	0	0	0	505	481	0	481	39	14	
3	0	0	0	0	501	491	0	479	39	13	
4	0	0	0	0	501	500	0	480	39	12	
5	0	0	0	0	501	510	0	480	38	13	
6	0	0	0	0	501	517	0	477	39	15	
7	0	0	0	0	503	519	0	472	39	16	
8	0	0	0	0	507	516	0	467	39	17	
9	0	0	0	0	506	515	0	462	39	16	
10	0	0	0	0	505	516	0	460	39	15	
11	0	0	0	0	505	519	0	459	39	13	
12	0	0	0	0	506	518	0	460	39	12	
13	0	0	0	0	511	515	0	467	39	13	
14	0	0	0	0	512	509	0	460	39	14	
15	0	0	0	0	516	499	0	473	38	15	
0	0	0	0	0	519	487	0	496	38	16	
1	0	0	0	0	515	479	0	506	38	17	
2	0	0	0	0	509	480	0	526	38	16	
3	0	0	0	0	504	487	0	538	39	14	
4	0	0	0	0	503	496	0	543	38	12	
5	0	0	0	0	500	506	0	554	39	12	
6	0	0	0	0	501	516	0	548	39	14	
7	0	0	0	0	501	519	0	550	39	15	
8	0	0	0	0	504	518	0	540	39	16	
9	0	0	0	0	508	515	0	531	39	17	
10	0	0	0	0	504	515	0	536	39	16	
11	0	0	0	0	504	518	0	532	39	14	
12	0	0	0	0	508	521	0	524	39	13	
13	0	0	0	0	509	519	0	518	39	12	
14	0	0	0	0	510	516	0	515	39	13	
15	0	0	0	0	514	508	0	507	39	15	
0	0	0	0	0	518	496	0	499	39	16	
1	0	0	0	0	520	482	0	489	39	17	
2	0	0	0	0	513	476	0	482	39	16	
3	0	0	0	0	510	480	0	479	39	15	
4	0	0	0	0	503	487	0	475	39	13	
5	0	0	0	0	503	497	0	472	39	12	
6	0	0	0	0	500	508	0	468	39	13	
7	0	0	0	0	500	516	0	463	39	14	
8	0	0	0	0	502	518	0	469	39	15	
9	0	0	0	0	506	516	0	487	39	16	
10	0	0	0	0	505	515	0	496	39	17	
11	0	0	0	0	503	515	0	515	38	16	
12	0	0	0	0	503	518	0	522	39	14	
13	0	0	0	0	507	519	0	520	39	12	
14	0	0	0	0	509	518	0	516	39	12	
15	0	0	0	0	511	511	0	534	39	14	
0	0	0	0	0	517	503	0	521	39	15	
1	0	0	0	0	519	491	0	524	39	16	
2	0	0	0	0	519	478	0	533	39	17	
3	0	0	0	0	512	477	0	535	39	16	
4	0	0	0	0	507	485	0	545	39	14	
5	0	0	0	0	503	494	0	542	39	13	
6	0	0	0	0	501	502	0	544	39	12	
7	0	0	0	0	501	512	0	545	39	13	
8	0	0	0	0	503	518	0	535	39	15	
9	0	0	0	0	504	521	0	523	39	16	
10	0	0	0	0	506	519	0	516	39	17	
11	0	0	0	0	505	518	0	512	39	16	
12	0	0	0	0	504	520	0	499	39	15	
13	0	0	0	0	503	523	0	487	39	13	
14	0	0	0	0	506	521	0	473	39	12	
15	0	0	0	0	512	517	0	462	39	13	
0	0	0	0	0	513	510	0	454	39	14	
1	0	0	0	0	517	498	0	459	39	15	
2	0	0	0	0	518	485	0	469	39	16	
3	0	0	0	0	516	475	0	469	39	17	
4	0	0	0	0	511	476	0	467	39	16	
5	0	0	0	0	505	486	0	465	38	14	
6	0	0	0	0	503	496	0	463	39	12	
7	0	0	0	0	499	504	0	460	39	12	
8	0	0	0	0	501	513	0	452	38	14	
9	0	0	0	0	502	517	0	444	39	15	
10	0	0	0	0	504	518	0	444	39	16	
11	0	0	0	0	507	515	0	442	39	17	
12	0	0	0	0	504	516	0	447	39	16	
13	0	0	0	0	505	518	0	445	39	14	
14	0	0	0	0	505	521	0	444	39	13	
15	0	0	0	0	508	519	0	442	39	12	
0	0	0	0	0	512	513	0	438	39	13	
1	0	0	0	0	515	506	0	457	39	15	
2	0	0	0	0	519	494	0	445	39	16	
3	0	0	0	0	518	480	0	450	39	17	
4	0	0	0	0	511	473	0	454	39	16	
5	0	0	0	0	503	478	0	460	39	15	
6	0	0	0	0	498	486	0	462	39	13	
7	0	0	0	0	500	497	0	462	39	12	
8	0	0	0	0	503	507	0	456	39	13	
9	0	0	0	0	500	517	0	453	39	14	
10	0	0	0	0	506	519	0	465	39	15	
11	0	0	0	0	509	519	0	487	39	16	
12	0	0	0	0	508	517	0	496	39	17	
13	0	0	0	0	506	517	0	512	39	16	
14	0	0	0	0	505	520	0	517	39	14	
15	0	0	0	0	508	522	0	516	39	12	
0	0	0	0	0	510	519	0	524	39	12	
1	0	0	0	0	510	514	0	512	39	14	
2	0	0	0	0	514	504	0	496	39	15	
3	0	0	0	0	515	494	0	483	38	16	
4	0	0	0	0	518	482	0	478	39	17	
5	0	0	0	0	511	479	0	476	39	16	
6	0	0	0	0	504	483	0	497	39	14	
7	0	0	0	0	502	492	0	503	39	13	
8	0	0	0	0	501	502	0	512	39	12	
9	0	0	0	0	500	511	0	526	39	13	
10	0	0	0	0	501	517	0	522	39	15	
11	0	0	0	0	506	517	0	535	39	16	
12	0	0	0	0	509	518	0	533	39	17	
13	0	0	0	0	505	517	0	536	39	16	
14	0	0	0	0	506	519	0	539	39	15	
15	0	0	0	0	503	521	0	529	39	13	
0	0	0	0	0	506	521	0	536	39	12	
1	0	0	0	0	512	518	0	530	39	13	
2	0	0	0	0	511	508	0	532	39	14	
3	0	0	0	0	514	498	0	539	39	15	
4	0	0	0	0	520	487	0	537	39	16	
5	0	0	0	0	518	476	0	549	39	17	
6	0	0	0	0	510	479	0	547	39	16	
7	0	0	0	0	506	487	0	551	39	14	
8	0	0	0	0	502	496	0	548	39	12	
9	0	0	0	0	502	505	0	536	38	12	
10	0	0	0	0	501	515	0	525	39	14	
11	0	0	0	0	504	518	0	517	39	15	
12	0	0	0	0	504	519	0	513	38	16	
13	0	0	0	0	508	515	0	500	39	17	
14	0	0	0	0	505	515	0	488	39	16	
15	0	0	0	0	505	519	0	476	39	14	
0	0	0	0	0	504	520	0	466	39	13	
1	0	0	0	0	506	516	0	459	39	12	
2	0	0	0	0	511	511	0	451	39	13	
3	0	0	0	0	513	504	0	448	39	15	
4	0	0	0	0	518	490	0	450	39	16	
5	0	0	0	0	520	477	0	452	39	17	
6	0	0	0	0	511	471	0	460	39	16	
7	0	0	0	0	508	476	0	460	39	15	
8	0	0	0	0	502	486	0	459	39	13	
9	0	0	0	0	501	497	0	457	39	12	
10	0	0	0	0	503	506	0	453	39	13	
11	0	0	0	0	500	517	0	452	38	14	
12	0	0	0	0	501	519	0	463	39	15	
13	0	0	0	0	505	517	0	487	39	16	
14	0	0	0	0	507	516	0	497	39	17	
15	0	0	0	0	506	516	0	517	39	16	
0	0	0	0	0	505	520	0	516	38	14	
1	0	0	0	0	508	521	0	514	38	12	
2	0	0	0	0	510	515	0	524	39	12	
3	0	0	0	0	513	510	0	521	39	14	
4	0	0	0	0	515	502	0	532	38	15	
5	0	0	0	0	517	488	0	534	38	16	
6	0	0	0	0	521	477	0	535	39	17	
7	0	0	0	0	511	476	0	541	39	16	
8	0	0	0	0	508	481	0	533	38	14	
9	0	0	0	0	504	488	0	540	38	13	
10	0	0	0	0	500	498	0	539	38	12	
11	0	0	0	0	500	508	0	536	39	13	
12	0	0	0	0	503	516	0	544	39	15	
13	0	0	0	0	504	516	0	538	39	16	
14	0	0	0	0	506	515	0	551	39	17	
15	0	0	0	0	507	512	0	539	39	16	
0	0	0	0	0	505	515	0	529	39	15	
1	0	0	0	0	503	519	0	518	39	13	
2	0	0	0	0	508	519	0	510	39	12	
3	0	0	0	0	508	515	0	507	39	13	
4	0	0	0	0	512	509	0	492	39	14	
5	0	0	0	0	515	498	0	488	39	15	
6	0	0	0	0	516	484	0	487	39	16	
7	0	0	0	0	515	474	0	482	39	17	
8	0	0	0	0	512	475	0	478	39	16	
9	0	0	0	0	504	481	0	470	39	14	
10	0	0	0	0	501	491	0	466	39	12	
11	0	0	0	0	501	501	0	459	39	12	
12	0	0	0	0	502	509	0	456	38	14	
13	0	0	0	0	502	515	0	456	39	15	
14	0	0	0	0	505	513	0	451	39	16	
15	0	0	0	0	509	510	0	448	39	17	
0	0	0	0	0	504	512	0	444	39	16	
1	0	0	0	0	504	515	0	441	38	14	
2	0	0	0	0	505	518	0	444	39	13	
3	0	0	0	0	508	516	0	443	38	12	
4	0	0	0	0	512	511	0	444	39	13	
5	0	0	0	0	515	505	0	449	39	15	
6	0	0	0	0	519	494	0	459	39	16	
7	0	0	0	0	519	481	0	459	38	17	
8	0	0	0	0	511	473	0	460	38	16	
9	0	0	0	0	510	478	0	462	39	15	
10	0	0	0	0	504	487	0	465	38	13	
11	0	0	0	0	504	498	0	480	39	12	
12	0	0	0	0	504	509	0	471	38	13	
13	0	0	0	0	501	515	0	470	39	14	
14	0	0	0	0	502	519	0	481	39	15	
15	0	0	0	0	503	519	0	501	39	16	
0	0	0	0	0	505	516	0	509	39	17	
1	0	0	0	0	501	519	0	520	38	16	
2	0	0	0	0	502	521	0	527	39	14	
3	0	0	0	0	504	521	0	529	38	12	
4	0	0	0	0	507	518	0	542	39	12	
5	0	0	0	0	508	512	0	537	39	14	
6	0	0	0	0	516	503	0	545	39	15	
7	0	0	0	0	519	488	0	544	39	16	
8	0	0	0	0	520	476	0	530	39	17	
9	0	0	0	0	514	474	0	513	39	16	
10	0	0	0	0	506	480	0	499	39	14	
11	0	0	0	0	504	489	0	492	39	13	
12	0	0	0	0	501	501	0	504	39	12	
13	0	0	0	0	499	510	0	519	39	13	
14	0	0	0	0	501	517	0	524	39	15	
15	0	0	0	0	504	517	0	538	39	16	
0	0	0	0	0	508	516	0	539	39	17	
1	0	0	0	0	507	515	0	543	39	16	
2	0	0	0	0	505	516	0	549	39	15	
3	0	0	0	0	504	518	0	544	39	13	
4	0	0	0	0	507	518	0	562	39	12	
5	0	0	0	0	510	514	0	542	39	13	
6	0	0	0	0	512	508	0	542	39	14	
7	0	0	0	0	516	497	0	546	39	15	
8	0	0	0	0	520	484	0	540	39	16	
9	0	0	0	0	517	473	0	555	38	17	
10	0	0	0	0	510	476	0	546	39	16	
11	0	0	0	0	504	484	0	543	38	14	
12	0	0	0	0	502	494	0	540	39	12	
13	0	0	0	0	499	504	0	532	39	12	
14	0	0	0	0	501	513	0	527	39	14	
15	0	0	0	0	503	516	0	511	39	15	
0	0	0	0	0	505	516	0	495	38	16	
1	0	0	0	0	505	513	0	484	39	17	
2	0	0	0	0	506	512	0	475	38	16	
3	0	0	0	0	503	516	0	472	38	14	
4	0	0	0	0	507	519	0	464	39	13	
5	0	0	0	0	511	518	0	461	39	12	
6	0	0	0	0	508	513	0	459	39	13	
7	0	0	0	0	514	507	0	458	39	15	
8	0	0	0	0	516	496	0	457	39	16	
9	0	0	0	0	519	483	0	472	39	17	
10	0	0	0	0	511	476	0	461	39	16	
11	0	0	0	0	507	479	0	466	39	15	
12	0	0	0	0	503	488	0	470	39	13	
13	0	0	0	0	502	499	0	471	39	12	
14	0	0	0	0	502	506	0	486	39	13	
15	0	0	0	0	502	514	0	466	39	14	
0	0	0	0	0	504	517	0	471	39	15	
1	0	0	0	0	505	515	0	487	39	16	
2	0	0	0	0	506	512	0	493	39	17	
3	0	0	0	0	504	514	0	492	39	16	
4	0	0	0	0	502	516	0	483	39	14	
5	0	0	0	0	505	519	0	476	39	12	
6	0	0	0	0	509	516	0	475	39	12	
7	0	0	0	0	512	511	0	494	38	14	
8	0	0	0	0	516	501	0	505	38	15	
9	0	0	0	0	520	490	0	499	38	16	
10	0	0	0	0	519	480	0	507	39	17	
11	0	0	0	0	511	477	0	527	39	16	
12	0	0	0	0	505	483	0	531	38	15	
13	0	0	0	0	502	494	0	521	39	13	
14	0	0	0	0	500	502	0	508	39	12	
15	0	0	0	0	499	510	0	493	39	13	
0	0	0	0	0	500	518	0	478	39	15	
1	0	0	0	0	505	520	0	471	39	16	
2	0	0	0	0	510	516	0	460	39	17	
3	0	0	0	0	505	515	0	457	39	16	
4	0	0	0	0	508	517	0	458	39	15	
5	0	0	0	0	504	518	0	461	39	13	
6	0	0	0	0	503	519	0	461	39	12	
7	0	0	0	0	508	516	0	457	39	13	
8	0	0	0	0	512	510	0	472	39	14	
9	0	0	0	0	516	496	0	497	39	15	
10	0	0	0	0	518	483	0	508	39	16	
11	0	0	0	0	515	474	0	504	39	17	
12	0	0	0	0	509	476	0	501	39	16	
13	0	0	0	0	505	483	0	495	38	14	
14	0	0	0	0	500	494	0	491	39	12	
15	0	0	0	0	501	504	0	485	39	12	
0	0	0	0	0	501	512	0	481	38	14	
1	0	0	0	0	504	516	0	473	39	15	
2	0	0	0	0	505	516	0	467	38	16	
3	0	0	0	0	508	513	0	467	38	17	
4	0	0	0	0	505	512	0	464	39	16	
5	0	0	0	0	504	515	0	464	39	15	
6	0	0	0	0	507	518	0	461	39	13	
7	0	0	0	0	511	518	0	455	38	12	
8	0	0	0	0	512	515	0	455	38	13	
9	0	0	0	0	513	507	0	448	39	15	
10	0	0	0	0	516	495	0	452	39	16	
11	0	0	0	0	520	482	0	457	39	17	
12	0	0	0	0	513	476	0	463	39	16	
13	0	0	0	0	508	480	0	471	39	15	
14	0	0	0	0	503	488	0	473	39	13	
15	0	0	0	0	502	498	0	476	39	12	
0	0	0	0	0	501	507	0	492	39	13	
1	0	0	0	0	501	512	0	504	39	14	
2	0	0	0	0	503	517	0	499	39	15	
3	0	0	0	0	507	517	0	494	39	16	
4	0	0	0	0	506	515	0	483	39	17	
5	0	0	0	0	507	514	0	475	38	16	
6	0	0	0	0	505	516	0	484	39	14	
7	0	0	0	0	506	519	0	499	39	12	
8	0	0	0	0	509	517	0	498	39	12	
9	0	0	0	0	512	510	0	485	39	14	
10	0	0	0	0	515	502	0	478	39	15	
11	0	0	0	0	518	489	0	473	38	16	
12	0	0	0	0	518	474	0	473	38	17	
13	0	0	0	0	511	473	0	474	39	16	
14	0	0	0	0	506	478	0	478	39	15	
15	0	0	0	0	504	487	0	472	38	13	
0	0	0	0	0	502	498	0	469	38	12	
1	0	0	0	0	501	507	0	463	38	13	
2	0	0	0	0	500	513	0	465	39	15	
3	0	0	0	0	503	516	0	492	39	16	
4	0	0	0	0	507	515	0	502	39	17	
5	0	0	0	0	505	513	0	516	38	16	
6	0	0	0	0	504	516	0	528	39	15	
7	0	0	0	0	503	518	0	526	39	13	
8	0	0	0	0	508	517	0	535	39	12	
9	0	0	0	0	510	515	0	527	39	13	
10	0	0	0	0	512	508	0	530	39	14	
11	0	0	0	0	518	498	0	539	39	15	
12	0	0	0	0	520	487	0	538	39	16	
13	0	0	0	0	517	476	0	551	39	17	
14	0	0	0	0	513	477	0	549	39	16	
15	0	0	0	0	506	483	0	551	38	14	
0	0	0	0	0	500	494	0	556	39	12	
1	0	0	0	0	501	504	0	545	39	12	
2	0	0	0	0	499	513	0	554	39	14	
3	0	0	0	0	505	516	0	547	39	15	
4	0	0	0	0	505	516	0	547	39	16	
5	0	0	0	0	508	515	0	547	39	17	
6	0	0	0	0	505	515	0	540	39	16	
7	0	0	0	0	504	517	0	546	38	15	
8	0	0	0	0	508	520	0	542	39	13	
9	0	0	0	0	509	517	0	533	38	12	
10	0	0	0	0	511	511	0	527	39	13	
11	0	0	0	0	513	505	0	523	38	15	
12	0	0	0	0	516	496	0	519	39	16	
13	0	0	0	0	519	483	0	509	39	17	
14	0	0	0	0	511	476	0	499	39	16	
15	0	0	0	0	507	480	0	492	39	15	
0	0	0	0	0	502	488	0	485	39	13	
1	0	0	0	0	501	497	0	477	39	12	
2	0	0	0	0	498	508	0	471	38	13	
3	0	0	0	0	497	513	0	466	39	14	
4	0	0	0	0	503	516	0	486	39	15	
5	0	0	0	0	505	515	0	497	39	16	
6	0	0	0	0	508	514	0	505	39	17	
7	0	0	0	0	504	517	0	518	39	16	
8	0	0	0	0	504	520	0	524	39	14	
9	0	0	0	0	504	522	0	521	39	12	
10	0	0	0	0	507	518	0	530	39	12	
11	0	0	0	0	513	514	0	527	39	14	
12	0	0	0	0	516	505	0	537	39	15	
13	0	0	0	0	519	491	0	540	39	16	
14	0	0	0	0	519	478	0	543	39	17	
15	0	0	0	0	512	474	0	558	39	16	
0	0	0	0	0	505	481	0	556	39	15	
1	0	0	0	0	504	492	0	553	38	13	
2	0	0	0	0	501	501	0	546	38	12	
3	0	0	0	0	500	511	0	541	38	13	
4	0	0	0	0	501	517	0	528	39	15	
5	0	0	0	0	506	519	0	511	38	16	
6	0	0	0	0	507	518	0	497	39	17	
7	0	0	0	0	507	516	0	482	39	16	
8	0	0	0	0	505	519	0	472	39	15	
9	0	0	0	0	507	521	0	462	39	13	
10	0	0	0	0	510	522	0	456	39	12	
11	0	0	0	0	509	517	0	451	38	13	
12	0	0	0	0	511	510	0	452	38	14	
13	0	0	0	0	516	499	0	454	39	15	
14	0	0	0	0	520	487	0	459	39	16	
15	0	0	0	0	516	477	0	461	39	17	
0	0	0	0	0	512	479	0	460	39	16	
1	0	0	0	0	504	486	0	461	39	14	
2	0	0	0	0	503	494	0	465	39	12	
3	0	0	0	0	501	505	0	465	39	12	
4	0	0	0	0	499	514	0	466	39	14	
5	0	0	0	0	498	519	0	465	39	15	
6	0	0	0	0	503	520	0	461	39	16	
7	0	0	0	0	508	517	0	462	39	17	
8	0	0	0	0	505	517	0	455	39	16	
9	0	0	0	0	503	519	0	452	38	15	
10	0	0	0	0	505	521	0	450	39	13	
11	0	0	0	0	507	521	0	453	39	12	
12	0	0	0	0	512	515	0	454	39	13	
13	0	0	0	0	515	507	0	455	39	15	
14	0	0	0	0	518	495	0	460	39	16	
15	0	0	0	0	521	483	0	462	39	17	
0	0	0	0	0	515	476	0	485	38	16	
1	0	0	0	0	509	480	0	504	39	15	
2	0	0	0	0	506	488	0	516	38	13	
3	0	0	0	0	503	499	0	541	39	12	
4	0	0	0	0	500	506	0	547	39	13	
5	0	0	0	0	502	514	0	552	39	14	
6	0	0	0	0	503	519	0	559	39	15	
7	0	0	0	0	506	518	0	550	39	16	
8	0	0	0	0	505	515	0	556	39	17	
9	0	0	0	0	505	518	0	547	39	16	
10	0	0	0	0	505	521	0	549	39	14	
11	0	0	0	0	507	523	0	552	39	12	
12	0	0	0	0	510	519	0	545	39	12	
13	0	0	0	0	512	511	0	555	39	13	
14	0	0	0	0	514	502	0	549	39	15	
15	0	0	0	0	517	492	0	553	39	16	
0	0	0	0	0	519	479	0	558	39	17	
1	0	0	0	0	510	476	0	551	39	16	
2	0	0	0	0	504	481	0	561	39	15	
3	0	0	0	0	502	492	0	558	39	13	
4	0	0	0	0	500	503	0	565	39	12	
5	0	0	0	0	501	511	0	566	39	13	
6	0	0	0	0	504	517	0	557	39	15	
7	0	0	0	0	504	518	0	562	39	16	
8	0	0	0	0	508	518	0	554	39	17	
9	0	0	0	0	508	517	0	561	39	16	
10	0	0	0	0	505	519	0	557	39	15	
11	0	0	0	0	504	523	0	546	38	13	
12	0	0	0	0	506	521	0	525	38	12	
13	0	0	0	0	509	517	0	508	39	13	
14	0	0	0	0	512	510	0	494	39	14	
15	0	0	0	0	515	500	0	496	39	15	
0	0	0	0	0	520	487	0	518	39	16	
1	0	0	0	0	519	477	0	526	39	17	
2	0	0	0	0	509	477	0	546	39	16	
3	0	0	0	0	504	485	0	554	39	14	
4	0	0	0	0	504	496	0	558	39	12	
5	0	0	0	0	504	504	0	569	39	12	
6	0	0	0	0	501	514	0	561	39	14	
7	0	0	0	0	502	520	0	559	39	15	
8	0	0	0	0	500	520	0	551	39	16	
9	0	0	0	0	504	517	0	544	39	17	
10	0	0	0	0	503	516	0	552	39	16	
11	0	0	0	0	502	518	0	548	39	15	
12	0	0	0	0	504	519	0	554	39	13	
13	0	0	0	0	509	516	0	553	38	12	
14	0	0	0	0	512	513	0	548	39	13	
15	0	0	0	0	515	504	0	552	39	15	
0	0	0	0	0	520	493	0	546	39	16	
1	0	0	0	0	521	481	0	551	38	17	
2	0	0	0	0	515	475	0	556	38	16	
3	0	0	0	0	508	479	0	558	38	15	
4	0	0	0	0	503	489	0	568	38	13	
5	0	0	0	0	500	499	0	563	38	12	
6	0	0	0	0	500	507	0	567	39	13	
7	0	0	0	0	501	515	0	563	39	14	
8	0	0	0	0	504	518	0	555	39	15	
9	0	0	0	0	507	518	0	557	39	16	
10	0	0	0	0	507	515	0	547	39	17	
11	0	0	0	0	504	516	0	550	39	16	
12	0	0	0	0	502	517	0	547	39	14	
13	0	0	0	0	507	518	0	542	39	12	
14	0	0	0	0	508	515	0	548	39	12	
15	0	0	0	0	510	510	0	545	39	14	
0	0	0	0	0	516	502	0	550	38	15	
1	0	0	0	0	518	490	0	550	38	16	
2	0	0	0	0	519	479	0	551	39	17	
3	0	0	0	0	512	477	0	561	39	16	
4	0	0	0	0	506	482	0	573	39	15	
5	0	0	0	0	500	492	0	564	38	13	
6	0	0	0	0	501	501	0	563	39	12	
7	0	0	0	0	502	511	0	558	39	13	
8	0	0	0	0	503	517	0	560	38	14	
9	0	0	0	0	505	519	0	544	38	16	
10	0	0	0	0	508	516	0	546	38	17	
11	0	0	0	0	507	515	0	544	39	16	
12	0	0	0	0	501	517	0	541	39	15	
13	0	0	0	0	502	519	0	550	39	13	
14	0	0	0	0	506	519	0	539	39	12	
15	0	0	0	0	511	515	0	540	39	13	
0	0	0	0	0	513	509	0	532	39	14	
1	0	0	0	0	518	498	0	543	39	15	
2	0	0	0	0	519	484	0	541	39	16	
3	0	0	0	0	516	474	0	540	39	17	
4	0	0	0	0	509	476	0	552	39	16	
5	0	0	0	0	505	482	0	558	39	14	
6	0	0	0	0	505	489	0	557	39	12	
7	0	0	0	0	503	500	0	561	39	12	
8	0	0	0	0	500	511	0	548	39	13	
9	0	0	0	0	502	515	0	550	39	15	
10	0	0	0	0	501	517	0	548	39	16	
11	0	0	0	0	503	515	0	543	39	17	
12	0	0	0	0	503	516	0	535	38	16	
13	0	0	0	0	505	519	0	527	39	15	
14	0	0	0	0	505	521	0	524	39	13	
15	0	0	0	0	509	519	0	505	38	12	
0	0	0	0	0	511	515	0	491	39	13	
1	0	0	0	0	513	506	0	479	39	14	
2	0	0	0	0	520	494	0	473	39	16	
3	0	0	0	0	522	480	0	468	38	17	
4	0	0	0	0	515	475	0	466	38	16	
5	0	0	0	0	508	479	0	466	38	15	
6	0	0	0	0	504	486	0	465	39	13	
7	0	0	0	0	500	496	0	467	39	12	
8	0	0	0	0	501	505	0	459	39	13	
9	0	0	0	0	500	514	0	453	39	14	
10	0	0	0	0	506	517	0	463	39	15	
11	0	0	0	0	506	518	0	486	39	16	
12	0	0	0	0	507	515	0	508	39	17	
13	0	0	0	0	505	516	0	514	39	16	
14	0	0	0	0	504	518	0	520	39	14	
15	0	0	0	0	505	519	0	520	39	12	
0	0	0	0	0	510	516	0	529	39	12	
1	0	0	0	0	512	513	0	520	39	14	
2	0	0	0	0	517	504	0	527	39	15	
3	0	0	0	0	519	490	0	533	39	16	
4	0	0	0	0	519	477	0	535	39	17	
5	0	0	0	0	513	473	0	549	39	16	
6	0	0	0	0	507	480	0	540	39	15	
7	0	0	0	0	504	489	0	541	38	13	
8	0	0	0	0	499	499	0	535	39	12	
9	0	0	0	0	500	510	0	530	39	13	
10	0	0	0	0	501	517	0	535	39	14	
11	0	0	0	0	504	519	0	526	39	16	
12	0	0	0	0	505	515	0	529	38	17	
13	0	0	0	0	505	513	0	531	39	16	
14	0	0	0	0	507	515	0	524	39	15	
15	0	0	0	0	505	519	0	526	39	13	
0	0	0	0	0	507	519	0	514	39	12	
1	0	0	0	0	511	515	0	516	38	12	
2	0	0	0	0	513	508	0	515	38	14	
3	0	0	0	0	516	498	0	513	39	15	
4	0	0	0	0	522	485	0	523	39	16	
5	0	0	0	0	517	475	0	518	39	17	
6	0	0	0	0	510	476	0	500	39	16	
7	0	0	0	0	507	484	0	483	39	14	
8	0	0	0	0	505	493	0	466	39	12	
9	0	0	0	0	499	502	0	456	39	12	
10	0	0	0	0	500	508	0	475	39	13	
11	0	0	0	0	504	514	0	480	39	15	
12	0	0	0	0	505	515	0	492	39	16	
13	0	0	0	0	507	513	0	506	38	17	
14	0	0	0	0	504	512	0	507	39	16	
15	0	0	0	0	507	516	0	519	39	15	
